,record,m,n,d,b,f,w,s,u_bits,c_bits,overhead_bits,bpm,bps,overhead,cr,pss,snr,prd,nmse,rtime,qc_snr,qc_prd,qc_nmse,min_qc_snr,max_qc_snr,min_q,max_q,min_rng,max_rng
0,100,320,800,4,25,13,812,649600,7145600,1274200,952,4.903786945812808,1.9615147783251232,0.0007471354575419872,5.607910846021033,82.16804746977161,23.127000866127727,6.976698523580696,0.004867432228893377,654.7501041000007,30.992971607508498,2.8206644152297273,0.0007956147743343259,30.30183168942114,31.74917767123653,5,5,3,3
1,101,320,800,4,25,13,812,649600,7145600,1353656,952,5.209575123152709,2.083830049261084,0.0007032805971384162,5.278741423227172,81.05609046126287,22.875309917658118,7.181819802169542,0.005157853567083373,713.6324431999994,30.354606997001248,3.035775489134988,0.0009215932820432778,29.48715251565056,31.3202152552547,5,5,3,6
2,102,320,800,4,25,13,812,649600,7145600,1236472,952,4.758589901477833,1.903435960591133,0.0007699325176793329,5.779022897404874,82.69603672189879,21.019900463401875,8.892113077826586,0.007906967498885076,711.5663849999971,29.290385929604412,3.431473928056372,0.001177501331893063,28.70144498861344,29.937181015087567,5,5,3,3
3,103,320,800,4,25,13,812,649600,7145600,1353304,952,5.208220443349754,2.0832881773399015,0.0007034635233473041,5.280114445830353,81.06101656963726,21.93187601128249,8.005826969545424,0.0064093265466301595,739.6838415000025,28.975777974970043,3.5580422536032663,0.001265966467842621,27.894914125917516,30.290977458902542,5,5,3,5
4,104,320,800,4,25,13,812,649600,7145600,1293720,952,4.978910098522167,1.991564039408867,0.0007358624741056797,5.523297158581455,81.8948723690103,18.219229474894973,12.275481220991043,0.01506874392069115,727.8233294000038,28.73433880599234,3.6583315265160574,0.0013383389557901303,27.699205355397577,29.783193031184698,5,5,3,5
5,105,320,800,4,25,13,812,649600,7145600,1408760,952,5.421644088669951,2.1686576354679805,0.0006757716005565177,5.072262131235981,80.28493058665472,21.58283698130051,8.334089325163024,0.006945704487979828,729.2802059999935,29.099923430078523,3.5075496599759086,0.001230290461719711,27.68441971122763,31.773699424755964,5,5,3,8
6,106,320,800,4,25,13,812,649600,7145600,1481560,952,5.701816502463054,2.2807266009852216,0.0006425659440049677,4.823024379707875,79.26612180922525,21.480904362803063,8.432469554879411,0.0071106542793968365,726.9412834000113,29.581331462798936,3.3184358524434256,0.0011012016506781928,27.49057861151298,33.550862345662026,4,5,3,4
7,107,320,800,4,25,13,812,649600,7145600,1654776,952,6.368442118226601,2.54737684729064,0.0005753044520829405,4.318167534457836,76.84202866099417,23.06769791889432,7.024494940898831,0.004934352917471444,743.344867499989,31.051454024925018,2.8017365694484493,0.0007849727804584765,27.916410682683445,33.27134876270562,5,6,4,5
8,108,320,800,4,25,13,812,649600,7145600,1440120,952,5.542333743842365,2.216933497536946,0.0006610560231091854,4.961808738160709,79.8460591133005,21.843935548190327,8.087293835121725,0.006540432157559817,739.0356455000183,29.923266258753138,3.1903379286532063,0.0010178256099003232,28.295086293886097,32.805040585114114,5,6,3,7
9,109,320,800,4,25,13,812,649600,7145600,1427992,952,5.495658866995074,2.1982635467980294,0.0006666704015148544,5.0039496019585545,80.01578593819973,23.9283848216203,6.361810944379527,0.004047263849202573,720.5499867999952,29.678747486923843,3.2814260816000758,0.0010767757129005226,28.120748923976656,32.31920501574831,5,5,3,5
10,111,320,800,4,25,13,812,649600,7145600,1480440,952,5.697506157635468,2.279002463054187,0.0006430520656021183,4.826673151225312,79.28179579041648,21.190179761465163,8.719488554181643,0.00760294806465012,714.1948247000046,29.375007672457627,3.3982053272237946,0.0011547799445972176,27.468864107446294,33.402235667562906,4,5,3,7
11,112,320,800,4,25,13,812,649600,7145600,1331000,952,5.1223830049261085,2.0489532019704435,0.000715251690458302,5.3685950413223145,81.3731527093596,25.757977538126152,5.153486267204143,0.0026558420706262616,724.0005898000354,32.50033853856658,2.37128128152965,0.0005622974916132899,31.02283421944152,33.61900972823044,6,6,2,4
12,113,320,800,4,25,13,812,649600,7145600,1563928,952,6.01881157635468,2.407524630541872,0.0006087236752587076,4.569008291941828,78.11341244961935,22.871713413930426,7.184794142278636,0.005162126686692075,717.2303329999759,30.4059791497566,3.017873576323973,0.0009107560922674445,27.751434065885306,33.80925287135285,4,5,4,5
13,114,320,800,4,25,13,812,649600,7145600,1484344,952,5.7125307881773395,2.285012315270936,0.0006413607627342449,4.813978430875862,79.22716077026422,20.493339080655133,9.44785122780084,0.008926189282265575,712.7653055999908,31.390869667176926,2.6943655478279136,0.0007259605705322012,29.742061251024634,32.866966904545144,4,5,3,6
14,115,320,800,4,25,13,812,649600,7145600,1306168,952,5.0268165024630544,2.0107266009852216,0.0007288495813708497,5.470659210760025,81.72066726377071,23.442999509370797,6.72744296518278,0.004525848884978637,718.8869304000018,29.386612765915906,3.393668065237093,0.0011516982937010076,28.48490456375373,32.6650982236743,5,6,3,5
15,116,320,800,4,25,13,812,649600,7145600,1479416,952,5.69356527093596,2.2774261083743843,0.0006434971637456942,4.830014005526505,79.2961262875056,25.107474538640037,5.5542608626961,0.003084981373087881,719.1822589000094,33.95619920314901,2.0053493419999056,0.00040214259834594535,32.379177000013996,34.89696778044718,6,6,3,8
16,117,320,800,4,25,13,812,649600,7145600,1339576,952,5.155387931034483,2.062155172413793,0.0007106726307428619,5.334225157811129,81.25313479623824,26.497297599409293,4.7329849122264855,0.0022401146179363636,754.7379844000061,32.888766257048324,2.2675751404325406,0.0005141897017507655,31.37331410966131,34.439053603269556,6,6,2,4
17,118,320,800,4,25,13,812,649600,7145600,1388344,952,5.343072660098522,2.137229064039409,0.0006857090173616914,5.1468512126677535,80.57064487236902,24.237096880291006,6.139671795861197,0.0037695569760893516,754.6459122000306,33.43970160649255,2.1282121569487256,0.0004529286984984346,32.531075468278274,34.09406023663047,6,6,3,4
18,119,320,800,4,25,13,812,649600,7145600,1397816,952,5.379525862068966,2.1518103448275863,0.0006810624574335964,5.111974680501582,80.43808777429467,25.885017526635576,5.0786598186164955,0.0025792785553230414,749.1493759999794,33.41639435400964,2.1339305566104945,0.00045536596204359746,32.48172911709523,34.31128543102792,6,6,3,4
19,121,320,800,4,25,13,812,649600,7145600,1375896,952,5.295166256157636,2.118066502463054,0.0006919127608482036,5.19341578142534,80.7448499776086,26.989611158054707,4.472181719937999,0.0020000409336147712,754.4764760000126,32.40442194231324,2.3976119961693647,0.0005748543284175247,31.296748493495937,33.929605649310844,6,6,2,6
20,122,320,800,4,25,13,812,649600,7145600,1346648,952,5.182604679802956,2.0730418719211823,0.000706940492244447,5.306212165317143,81.15416480071653,25.647047673766682,5.219724920803652,0.002724552824885851,737.0374037000165,33.219546813739804,2.1828437987391895,0.0004764807049694136,31.089284835745598,33.873085241720624,6,6,2,3
21,123,320,800,4,25,13,812,649600,7145600,1311416,952,5.04701354679803,2.0188054187192117,0.0007259328847596796,5.44876682913736,81.64722346618899,25.308383549343354,5.427262436973766,0.002945517755978526,727.6905319999914,32.03351811467412,2.502211952379268,0.0006261064654629668,30.754845572509197,33.32303247788469,6,6,2,5
22,124,320,800,4,25,13,812,649600,7145600,1418840,952,5.460437192118227,2.184174876847291,0.0006709706520819825,5.036226776803586,80.14386475593372,26.821434407514868,4.559616111988507,0.0020790099088705523,739.0139763000443,33.104834201968885,2.2118633365835105,0.0004892339419722341,31.805646597343465,34.911760999672396,6,6,3,4
23,200,320,800,4,25,13,812,649600,7145600,1614264,952,6.2125307881773395,2.485012315270936,0.0005897424460930802,4.426537418910414,77.4089789520824,20.36893712901262,9.584139878974865,0.009185573721975858,727.3587836999213,31.026053277422914,2.809941873196306,0.0007895773330741966,29.28820539752635,32.83777345878446,4,4,4,7
24,201,320,800,4,25,13,812,649600,7145600,1408024,952,5.418811576354679,2.167524630541872,0.0006761248387811571,5.074913495792686,80.29523063143753,23.155177489770523,6.954103105800109,0.0048359550006098935,728.6021607999828,30.899221099017897,2.851273942004986,0.000812976309235665,28.896870085606956,32.17349961396387,4,5,3,6
25,202,320,800,4,25,13,812,649600,7145600,1481496,952,5.701570197044335,2.2806280788177338,0.0006425937025817147,4.823232732319223,79.26701746529332,23.02071124322384,7.062597198869971,0.00498802791934864,757.2838015999478,29.904368211828956,3.1972867611005493,0.0010222642632708842,27.733141274456088,33.21540664104682,4,5,3,8
26,203,320,800,4,25,13,812,649600,7145600,1552760,952,5.975831280788177,2.390332512315271,0.0006131018315773204,4.601870218192122,78.26970443349754,20.65257109729486,9.27622865216692,0.00860484180072805,771.7187461999274,30.36044401898102,3.0337360969323837,0.0009203554705830533,28.207010781669315,33.64220066425046,4,5,3,8
27,205,320,800,4,25,13,812,649600,7145600,1291992,952,4.972259852216749,1.9889039408866995,0.0007368466677812246,5.5306844005226035,81.91905508284819,22.627359416444396,7.3897888464909,0.005460897919572424,773.7286603000321,30.78806702716469,2.887996407373454,0.0008340523249001977,29.530734364427964,32.108073209590245,5,5,3,4
28,207,320,800,4,25,13,812,649600,7145600,1538424,952,5.9206588669950735,2.3682635467980298,0.0006188150990884178,4.6447533319813,78.47033139274518,22.771107365507113,7.268497271148805,0.005283105258069632,777.8855538999633,30.10925663734957,3.1227496484081976,0.0009751565366633521,28.404355271731863,33.417214963452935,4,5,3,8
29,208,320,800,4,25,13,812,649600,7145600,1503480,952,5.786176108374384,2.314470443349754,0.0006331976481230212,4.752707052970442,78.95935960591133,21.747014503847666,8.17804083581143,0.006688035191219679,775.7108680000347,29.251127380633598,3.447018632662424,0.001188193745392193,27.743071632683126,33.632056102943125,4,6,3,6
30,209,320,800,4,25,13,812,649600,7145600,1523896,952,5.864747536945813,2.345899014778325,0.0006247145474494322,4.689033897326326,78.67364532019704,18.0436576984959,12.526135781356828,0.01569040776129858,737.3766633000087,30.503190460664396,2.984286243401794,0.0008905964382557189,27.211420190832484,33.647234057702725,4,5,3,4
31,210,320,800,4,25,13,812,649600,7145600,1514072,952,5.8269396551724135,2.3307758620689656,0.0006287679846136775,4.719458519806191,78.81112852664577,22.024400629750527,7.920999183315923,0.006274222806209218,752.3389342000228,30.376083551842004,3.0282785643228896,0.0009170471063137503,27.27095092046542,33.70793550463421,4,5,3,8
32,212,320,800,4,25,13,812,649600,7145600,1552856,952,5.976200738916257,2.3904802955665025,0.0006130639286579052,4.601585723338159,78.26836094939543,17.650756545088093,13.105758856162334,0.017176091519588255,763.1406702000168,30.26976461287628,3.065573755177531,0.0009397742448433268,28.09607607859484,33.59026062160269,4,5,3,5
33,213,320,800,4,25,13,812,649600,7145600,1616696,952,6.22189039408867,2.4887561576354678,0.0005888552949967094,4.4198785671517715,77.37494402149575,19.60072518619347,10.47041126785066,0.010962951211793668,744.7761543000124,31.772189601663015,2.5786388406226446,0.0006649378270367696,30.350627787656798,33.74777822742836,5,5,3,4
34,214,320,800,4,25,13,812,649600,7145600,1519480,952,5.847752463054187,2.339100985221675,0.0006265301287282491,4.702661436807329,78.73544558889387,24.00574112788452,6.305404372818951,0.003975812430476387,779.8010713999756,29.250703006713007,3.447187050706893,0.0011883098562561285,27.493260073194705,32.82304692996378,4,5,3,4
35,215,320,800,4,25,13,812,649600,7145600,1504312,952,5.789378078817734,2.3157512315270936,0.0006328474412222997,4.750078441174437,78.94771607702643,17.347737083921828,13.571040476354131,0.018417313961084147,801.2913590000317,30.455799492824067,3.0006132685256017,0.0009003679987251895,27.771411881319857,31.856994580743113,4,5,3,5
36,217,320,800,4,25,13,812,649600,7145600,1550616,952,5.967580049261084,2.3870320197044337,0.0006139495529518591,4.608233115097484,78.29970891177788,23.538503698283645,6.653877714172183,0.0044274088635157085,789.0639971999917,30.067988603681066,3.1376216268315757,0.0009844669473161223,28.96672802865462,32.64759194356766,5,5,4,7
37,219,320,800,4,25,13,812,649600,7145600,1437656,952,5.532850985221675,2.21314039408867,0.0006621890076624729,4.970312786925384,79.88054187192118,25.12282423373293,5.54445404655278,0.0030740970674334365,786.6157931999114,31.067412519045885,2.796593694096103,0.0007820936289858087,30.014273521532395,32.2565986988999,6,6,3,4
38,220,320,800,4,25,13,812,649600,7145600,1207384,952,4.646644088669951,1.8586576354679802,0.0007884815435685748,5.918249703491184,83.10311240483654,23.097288971188988,7.000604638868939,0.004900846530975339,796.3050360999878,29.6266550291009,3.3011651262660013,0.0010897691190874827,28.704012667553414,30.554324695671223,6,6,2,4
39,221,320,800,4,25,13,812,649600,7145600,1535000,952,5.907481527093596,2.3629926108374386,0.0006201954397394136,4.655114006514658,78.51824899238693,22.66717592704135,7.355991244541447,0.005411060718976884,762.3052428999872,31.163231685614964,2.765912364287086,0.0007650271206916178,27.193446487939987,33.176399109891534,4,5,3,5
40,222,320,800,4,25,13,812,649600,7145600,1475704,952,5.679279556650246,2.2717118226600985,0.0006451158226853081,4.842163469096784,79.34807433945365,19.817480981611364,10.212356120720374,0.010429221753641072,751.7049122999233,30.92707343027795,2.842145638578905,0.000807779183089309,28.447940603224534,33.49401589055332,4,5,3,5
41,223,320,800,4,25,13,812,649600,7145600,1250200,952,4.811422413793103,1.9245689655172413,0.000761478163493841,5.715565509518477,82.50391849529781,23.784401001194542,6.4681480200372325,0.004183693880911048,755.5469721999834,29.36135473989588,3.4035510030974723,0.0011584159430685808,28.42724092641016,30.22648490870218,6,6,3,6
42,228,320,800,4,25,13,812,649600,7145600,1552568,952,5.97509236453202,2.390036945812808,0.0006131776514780673,4.602439313447141,78.27239140170175,20.891435240123197,9.024605742563253,0.00814435088087092,767.9924651999718,30.465942614778008,2.99711128731023,0.0008982676068522385,28.03209490211303,31.785690058922942,4,5,3,7
43,230,320,800,4,25,13,812,649600,7145600,1456600,952,5.605757389162561,2.2423029556650245,0.0006535768227378827,4.905670740079637,79.61542767577251,21.37516818480155,8.53574811370092,0.007285899586054668,748.0123654000272,29.064497293284372,3.521884711928732,0.0012403671924117326,27.466732748770468,33.56278864888038,4,5,4,6
44,231,320,800,4,25,13,812,649600,7145600,1487512,952,5.724722906403941,2.2898891625615763,0.0006399948370164409,4.803725953135168,79.18282579489475,21.790101453337833,8.137573558362272,0.006622010341775864,767.5900958001439,29.814150077462106,3.230669235917853,0.0010437223711906047,27.50158035257963,32.83452245881508,4,5,3,4
45,232,320,800,4,25,13,812,649600,7145600,1464120,952,5.634698275862069,2.2538793103448276,0.0006502199273283611,4.880474278064639,79.5101880877743,20.24218702597996,9.725023259335936,0.009457607739462342,776.688558000038,30.8530133051386,2.8664827640849633,0.0008216723436796172,28.068188370468,33.24612317653537,4,5,3,4
46,233,320,800,4,25,13,812,649600,7145600,1554904,952,5.984082512315271,2.3936330049261083,0.0006122564479864995,4.595524868416314,78.23969995521719,21.76907818539281,8.157293541242423,0.00665414379179945,776.9550410000156,29.783151715268353,3.2422195056685372,0.0010511987322937533,28.758437355578646,32.3427585003191,4,5,4,6
47,234,320,800,4,25,13,812,649600,7145600,1530552,952,5.890363300492611,2.356145320197044,0.0006219978151673384,4.668642424432492,78.58049708911778,22.1277387747421,7.827319496411173,0.006126693049889967,786.5271949000453,30.01808510367506,3.155700254221463,0.0009958444094493406,27.347069988166055,33.15049842180138,4,5,4,7
