,record,m,n,d,b,f,w,s,u_bits,c_bits,overhead_bits,bpm,bps,overhead,cr,pss,snr,prd,nmse,rtime,qc_snr,qc_prd,qc_nmse,min_qc_snr,max_qc_snr,min_q,max_q,min_rng,max_rng
0,100,77,512,12,32,40,1269,649728,7147008,565880,2680,5.7912457912457915,0.8709490740740741,0.004735986428217997,12.629900332225914,92.08228114478115,5.340591772626676,54.07174824239209,0.29237539579886324,70.81929447967559,36.3165353183096,1.5281755048316243,0.00023353203735673904,33.22885673572704,42.89081195366487,6,6,2,3
1,100,102,512,12,32,40,1269,649728,7147008,755928,2680,5.84007787512168,1.163453014184397,0.0035453111936586553,9.454614725211925,89.42315441650548,7.815983897335678,40.663130018851206,0.16534901429299984,75.6307241555769,36.47915206360762,1.4998312453088745,0.0002249493764404769,33.34961611133962,44.49791194432068,5,6,2,3
2,100,128,512,12,32,40,1269,649728,7147008,1032216,2680,6.35475768321513,1.5886894208037825,0.002596355801498911,6.923946150805645,85.55736890178379,13.608742823690791,20.871941978898207,0.043563796197049316,79.99186978978105,39.50397485753942,1.0587690978569626,0.00011209920025768466,33.90926077668533,44.371179315754546,5,5,2,3
3,100,154,512,12,32,40,1269,649728,7147008,1203160,2680,6.156601475750412,1.8517902876280536,0.002227467668473021,5.940197479969414,83.16554283974497,17.77494963698356,12.919702643054967,0.01669187163849615,93.17691866005771,39.41386375649813,1.069810391790837,0.0001144494274383664,34.44108989211872,42.083318177151675,5,5,2,3
4,100,179,512,12,32,40,1269,649728,7147008,1362872,2680,5.999850319831301,2.0976039204097714,0.001966435586027154,5.244078680903269,80.93087345082026,20.497644582425263,9.443169190406056,0.008917344435863417,99.31040062266402,38.75764255911625,1.15376635953243,0.00013311768123887164,34.81173463778992,41.307036200483736,5,5,3,3
5,100,205,512,12,32,40,1269,649728,7147008,1590584,2680,6.114220915258798,2.4480767336485423,0.0016849157290655507,4.493323207073629,77.74475696683143,22.722595264381916,7.309206584456636,0.005342450089426425,114.1354568907991,39.687106088532836,1.0366799415675207,0.0001074705301248438,35.67428841149547,44.97390003997036,4,5,3,3
6,100,230,512,12,32,40,1269,649728,7147008,1965208,2680,6.733162024188851,3.0246626280535853,0.0013637233310672457,3.636769237658304,72.50306701769468,24.17510481778686,6.18364799171072,0.0038237502485388023,120.45256624766625,39.526742101935895,1.0559975118315854,0.00011151307449944996,35.581656322293675,43.78010537402611,4,5,3,4
7,100,256,512,12,32,40,1269,649728,7147008,2178328,2680,6.705353624901497,3.3526768124507487,0.0012303014054816355,3.280960443055408,69.52111988681138,25.602743093177697,5.246417468308646,0.002752489625177411,125.90920573286712,40.589171767212335,0.9344184643827641,8.731378665794429e-05,36.111845457743776,43.51319303454191,4,4,3,3
8,100,282,512,12,32,40,1269,649728,7147008,2371608,2680,6.627232030581963,3.6501551418439715,0.0011300349804858139,3.013570539482073,66.81677143778208,24.62571631585345,5.871028440641977,0.0034468974950826966,154.1392669605557,35.57021177778239,1.6652882245352285,0.0002773184870775694,33.60076012336994,37.98833574130762,4,4,3,4
9,100,307,512,12,32,40,1269,649728,7147008,2524376,2680,6.479687255347384,3.8852812253743103,0.0010616485024417916,2.831197888111755,64.67926158750628,26.32749104936619,4.8264237292153185,0.0023294366013932705,159.88947038259357,37.47080695827079,1.3380109021399447,0.0001790273174245349,34.80152325925726,39.34130815323072,4,4,3,4
10,100,333,512,12,32,40,1269,649728,7147008,2725144,2680,6.448869673455962,4.194284377462569,0.0009834342698954624,2.6226166397078465,61.87014202306756,27.196885849067193,4.366723642662935,0.0019068275371391448,177.51888367231004,37.42752475161181,1.3446949144941345,0.00018082044130663877,33.58702245311656,40.75951913011577,4,4,3,4
11,100,358,512,12,32,40,1269,649728,7147008,2918456,2680,6.42404391792244,4.49181195823483,0.0009182937827399145,2.4489003774598626,59.165345834228816,27.937876834604502,4.009647168431084,0.0016077270415307415,184.28109286702238,37.94567499274856,1.2668239062753526,0.00016048428095107435,34.369266522821306,40.25720322085216,4,4,3,3
12,100,384,512,12,32,40,1269,649728,7147008,3080792,2680,6.322218938796953,4.741664204097715,0.0008699061799693066,2.3198606072724157,56.893961780929864,29.154472714891824,3.485590508014517,0.0012149341189560897,192.76638546329923,38.91500338958721,1.133051970778441,0.0001283806768484909,35.34547340977186,41.66682762740667,4,4,3,3
13,100,410,512,12,32,40,1269,649728,7147008,3330264,2680,6.400784178054547,5.125627955082742,0.0008047410055178808,2.146078509091171,53.40338222652053,29.179860088871294,3.4754175955350375,0.0012078527463354539,216.34095025109127,38.123417915084225,1.241163811024569,0.00015404876057970322,33.84384292798905,41.45890950798517,3,4,3,4
14,101,77,512,12,32,40,1269,649728,7147008,639000,2680,6.539559731049093,0.983488475177305,0.004194053208137715,11.184676056338029,91.05919568020632,4.735435912352513,57.973324304145294,0.33609063308736026,70.76072866516188,38.40071667198559,1.202165239977604,0.000144520126421041,33.61379465367083,46.81975213909733,6,6,2,5
15,101,102,512,12,32,40,1269,649728,7147008,867960,2680,6.705604227506606,1.3358820921985815,0.003087699894004332,8.234259643301534,87.85561734364926,8.800552048242588,36.30549793868095,0.13180891805755668,76.05520678474568,37.969736777114065,1.2633193876850377,0.00015959758753008988,33.08168837152262,45.91806069099193,5,6,2,5
16,101,128,512,12,32,40,1269,649728,7147008,1116056,2680,6.870912135539795,1.7177280338849488,0.002401313195753618,6.403807694237565,84.38429060104592,13.892841999958685,20.200303752907892,0.04080522717097447,80.44022272899747,39.628213039711206,1.0437328392665808,0.00010893782397634784,34.767366175395736,44.63597701677443,5,6,3,5
17,101,154,512,12,32,40,1269,649728,7147008,1302552,2680,6.665192963065303,2.004765070921986,0.002057499431884485,5.486927201370848,81.7748629916183,18.167035783592397,12.34946691084559,0.01525093329820701,93.23201785166748,39.23248058374194,1.092385610680314,0.00011933063224214024,33.81948697379656,42.65974022519224,5,6,3,5
18,101,179,512,12,32,40,1269,649728,7147008,1481688,2680,6.522920876421411,2.2804742907801416,0.0018087478605482395,4.823557996015356,79.26841553836235,20.630047125068184,9.30031468878741,0.008649585331047488,99.20594670507126,38.89096461357295,1.1361921105711374,0.0001290932512124096,33.82174128058239,45.510605578590535,4,5,3,5
19,101,205,512,12,32,40,1269,649728,7147008,1771352,2680,6.809094927828711,2.7262977738376675,0.0015129686250954072,4.034775696755924,75.21547478329393,22.73385512637261,7.299737510006482,0.005328616771499563,114.3431581419427,39.34854785450613,1.077885444293203,0.00011618370310191558,34.31561916293894,43.99455467695405,4,5,3,6
20,101,230,512,12,32,40,1269,649728,7147008,2100216,2680,7.195724123753726,3.232454196217494,0.0012760592243845396,3.4029871213246636,70.61405276165914,23.932054952393955,6.359123396307642,0.004043845036946724,120.3287277710624,39.64742888551687,1.0414263351257904,0.00010845688114935352,36.30979039577224,43.55271668500683,4,5,3,6
21,101,256,512,12,32,40,1269,649728,7147008,2293080,2680,7.05858451536643,3.529292257683215,0.0011687337554729883,3.116772201580407,67.91552493015259,25.260323062619797,5.457375625734606,0.0029782948720362182,125.28703110152856,39.76220096784964,1.0277558361278745,0.00010562820586949062,33.69942543949004,43.81843336388931,4,5,3,6
22,101,282,512,12,32,40,1269,649728,7147008,2494424,2680,6.970429611745441,3.8391819345941687,0.0010743963335824221,2.8651937280911346,65.09834604914393,25.326104730384593,5.416200880937343,0.0029335231982666452,153.49334481311962,36.84694513524956,1.4376485916453035,0.00020668334730597246,33.3993021282284,41.00802443419239,4,5,3,6
23,101,307,512,12,32,40,1269,649728,7147008,2672696,2680,6.860402019595311,4.113561367218282,0.0010027328210915122,2.674081900822241,62.60398757074289,26.258773768637834,4.864758791260807,0.002366587809714931,159.25363503675908,37.429646126679344,1.3443665366234274,0.00018073213847928692,33.85734033716767,41.07618055676238,4,5,3,6
24,101,333,512,12,32,40,1269,649728,7147008,2880248,2680,6.815912839553501,4.433005811662727,0.0009304754312823063,2.4813863250664525,59.699947166702486,26.807837573516107,4.566759294278429,0.0020855290451878418,176.902382803848,36.945857680717474,1.4213699055884341,0.00020202924085124745,33.5555062590369,40.29062598176456,4,5,3,6
25,101,358,512,12,32,40,1269,649728,7147008,3074808,2680,6.768202649338986,4.732454196217494,0.0008715991372469435,2.32437537563321,56.977689125295505,26.87615973729598,4.530978622347783,0.0020529767276172613,183.58870680863038,35.58102107824894,1.663217117762909,0.0002766291180819558,33.392377673485804,43.67095418172524,3,4,3,7
26,101,384,512,12,32,40,1269,649728,7147008,3278968,2680,6.728903992645128,5.046677994483845,0.0008173303307626058,2.179651646493653,54.121109141055946,28.377481801502903,3.8117631737192825,0.0014529538492522498,192.2028812081553,37.83900695016955,1.2824771987216046,0.0001644747765240814,33.828370056652986,41.395144225345454,3,4,3,7
27,101,410,512,12,32,40,1269,649728,7147008,3559320,2680,6.841030963501124,5.478169326241135,0.0007529528112111303,2.0079700616971783,50.19846067053514,28.56054206885682,3.732268647328924,0.0013929829255834476,215.6772521629464,37.11007627767396,1.3947494091873573,0.00019453259144284823,33.65230121127065,41.295702192236384,3,4,3,7
28,102,77,512,12,32,40,1269,649728,7147008,570616,2680,5.83971426524618,0.8782382781717888,0.004696678677078806,12.525074656161062,92.01601565298374,6.368047665181027,48.03940466848074,0.23077844009020498,70.69621662073769,36.199851147413995,1.5488431616552563,0.00023989151394062503,33.72801620296244,46.018235226621336,5,6,2,3
29,102,102,512,12,32,40,1269,649728,7147008,844568,2680,6.5248845006875875,1.2998793341213555,0.003173219918348789,8.462323933656023,88.18291514435131,8.395939310202072,38.036717800986246,0.1446791901071864,76.0145465573296,39.788384621428854,1.024662326555729,0.00010499328834625997,33.71958304628613,45.754480891001464,5,5,2,3
30,102,128,512,12,32,40,1269,649728,7147008,1012056,2680,6.230644208037825,1.5576610520094563,0.0026480748100895604,7.061870094144988,85.83944498173221,12.134662938720563,24.732433672781724,0.06116932753785474,80.38665820821188,39.148705132959165,1.1029726495328553,0.00012165486656175273,33.530931552989124,42.571706067510426,5,5,2,3
31,102,154,512,12,32,40,1269,649728,7147008,1188536,2680,6.081770081770082,1.8292824074074074,0.0022548749049250507,6.013286934514394,83.37015993265993,15.715827203153678,16.37603054989053,0.026817437657094798,93.1889411706943,38.11986368881803,1.2416717934975698,0.00015417488427674715,33.24517751679819,41.289125577151246,4,5,2,3
32,102,179,512,12,32,40,1269,649728,7147008,1493112,2680,6.5732134131040585,2.2980570330969265,0.0017949088882816561,4.786652307395561,79.10857242639158,18.256819871531167,12.222470744676665,0.014938879110447695,99.26446111523546,39.13073288932745,1.105257207158715,0.00012215934939762826,33.438155095203555,45.81877967647097,4,5,2,3
33,102,205,512,12,32,40,1269,649728,7147008,1774776,2680,6.822256818312864,2.731567671394799,0.0015100497189504479,4.0269915752748515,75.16756662368364,20.664049617253625,9.263978087688244,0.008582129000916792,114.36697940900922,40.878099373958136,0.9038472298206846,8.169398148545253e-05,36.099948214519586,45.25594493625789,4,4,3,3
34,102,230,512,12,32,40,1269,649728,7147008,1935768,2680,6.632295199917771,2.9793513593380614,0.0013844634274355191,3.692078802831744,72.91498764238126,22.524585667864965,7.47774612769393,0.005591668715024156,120.36385485413484,41.602286297757075,0.8315448632569248,6.914668596089778e-05,38.69308459976996,44.63644693182563,4,4,3,3
35,102,256,512,12,32,40,1269,649728,7147008,2121592,2680,6.530708234830575,3.2653541174152876,0.001263202349933446,3.3687004852959475,70.31496256895193,23.645659597948203,6.572294567589189,0.0043195055883162355,125.31037512910552,39.23411014150763,1.0921806876894602,0.00011928586545618219,35.83394845095899,42.4569908852113,4,4,3,3
36,102,282,512,12,32,40,1269,649728,7147008,2301368,2680,6.43095305959347,3.542048364854216,0.0011645247522343233,3.105547656871913,67.79956031950712,25.126301062894605,5.542235130280067,0.0030716370239310515,153.46086581842974,39.81609750449265,1.0213982860969095,0.00010432544588417045,37.074252850671975,42.665492683875094,4,4,3,3
37,102,307,512,12,32,40,1269,649728,7147008,2485848,2680,6.380791769661407,3.82598256501182,0.0010781029250380553,2.875078444056113,65.21834031807435,26.12172166998839,4.942127171102307,0.0024424620975347687,159.16292560705915,39.48512151823889,1.0610697271882752,0.00011258689659554005,36.70557596652109,42.575716717288465,4,4,3,3
38,102,333,512,12,32,40,1269,649728,7147008,2720568,2680,6.43804087775719,4.187241430260047,0.0009850884080089158,2.627027885353353,61.93416881581775,26.85554010900341,4.541747591449876,0.0020627471184440746,176.8721018722281,39.2284501885645,1.0928926131304715,0.00011944142638351501,36.50767745511908,41.466358803755014,3,4,3,3
39,102,358,512,12,32,40,1269,649728,7147008,3028024,2680,6.665222693274518,4.660448680063042,0.0008850656401666565,2.3602877652224685,57.63228472669962,27.352061890617062,4.289403536054556,0.001839898269511733,183.67153727193363,38.48765646155213,1.1901924114603628,0.00014165579762978337,34.99603287041148,42.001064397929966,3,4,3,3
40,102,384,512,12,32,40,1269,649728,7147008,3355032,2680,6.884998029944838,5.163748522458629,0.0007988001306693945,2.1302354195131374,53.05683161401247,27.602636130989964,4.167428845618712,0.001736746318329491,192.1931507010013,38.01742943036002,1.2564017379676782,0.00015785453271682022,34.989948849932524,43.004802172075884,3,4,3,3
41,102,410,512,12,32,40,1269,649728,7147008,3678232,2680,7.069580426300717,5.661187450748621,0.0007286109195939789,1.9430552504572849,48.5346595386489,26.54868686368866,4.705065317173282,0.002213763963886692,215.6796854706481,35.18593155936444,1.7406178064808633,0.00030297503482382517,33.825652686175886,40.999266219164234,3,4,3,4
42,103,77,512,12,32,40,1269,649728,7147008,637176,2680,6.52089281876516,0.980681146572104,0.004206059236380529,11.216693660778184,91.0847168493445,3.1401498802872285,69.66144935019942,0.48527175255703997,70.67973647639155,37.556155067954016,1.3249279035012738,0.00017554339494762802,33.572060934309455,45.21579740480335,5,6,2,5
43,103,102,512,12,32,40,1269,649728,7147008,895000,2680,6.914507331695484,1.3774995074862095,0.002994413407821229,7.985483798882681,87.47727720467083,8.120981277740638,39.26005793246424,0.15413521488604484,76.07478852546774,39.8561134608282,1.0167035195266443,0.00010336860466178656,34.61398344556192,45.53555407384908,5,6,2,5
44,103,128,512,12,32,40,1269,649728,7147008,1084664,2680,6.677649724192277,1.6694124310480694,0.002470811237397019,6.589144656778505,84.82352335410846,13.034930095717126,22.297362538543236,0.04971723761752313,80.42603363702074,38.92757578463093,1.1314131205335962,0.000128009564931557,33.58264244566785,42.65877699760571,5,6,2,5
45,103,154,512,12,32,40,1269,649728,7147008,1306392,2680,6.684842344416812,2.0106752364066196,0.002051451631669514,5.470798963863833,81.72113421448528,16.457561071151325,15.03564095682437,0.022607049898253444,93.20932911196724,39.29692182800868,1.0843111124033906,0.00011757305884814781,33.95965748944152,45.408492736738395,4,5,3,5
46,103,179,512,12,32,40,1269,649728,7147008,1603864,2680,7.060783355565241,2.4685160559495665,0.0016709646204416334,4.456118473885566,77.55894494591303,18.9113484007082,11.33528855008762,0.01284887665137475,99.19607947906479,39.2358728182115,1.091959067774163,0.00011923746056942193,34.68420180949999,44.33712338824039,4,5,3,5
47,103,205,512,12,32,40,1269,649728,7147008,1861272,2680,7.154748313440582,2.86469414893617,0.0014398755259843806,3.8398514564233492,73.9573259187621,21.56267217995614,8.353459877719388,0.006978029192866762,114.32161241653375,38.70501152684703,1.1607786822270452,0.00013474071491127555,33.6754440254436,42.9956532635224,4,5,3,6
48,103,230,512,12,32,40,1269,649728,7147008,2067384,2680,7.083235687120979,3.181922281323877,0.0012963242435851299,3.4570297535436088,71.07343380614657,23.254689729199114,6.874886197710286,0.0047264060231467404,120.34988452587277,39.11190383065733,1.107655755460861,0.00012269012726055705,35.512638088091954,42.13763994595768,4,5,3,6
49,103,256,512,12,32,40,1269,649728,7147008,2260568,2680,6.958505713159968,3.479252856579984,0.0011855427485481524,3.1615983239610577,68.37042857654559,24.482869180446603,5.968381025131595,0.003562157206115088,125.2797494137194,37.68420625658944,1.3055385107869761,0.00017044308031478753,33.39578510619097,41.5965698389681,4,5,3,5
50,103,282,512,12,32,40,1269,649728,7147008,2466584,2680,6.892633390898066,3.796333234830575,0.0010865228996863679,2.897532782179727,65.4878796833584,25.506275516652455,5.305010211073813,0.002814313333959742,153.6154828441795,36.457483874124,1.5035774588725312,0.00022607451748295784,33.358705902808325,40.97104629711969,3,5,3,6
51,103,307,512,12,32,40,1269,649728,7147008,2690744,2680,6.90672847634522,4.14133914499606,0.0009960070523245615,2.6561456608283804,62.351462318217635,25.972511516845447,5.027758676598236,0.002527835731010884,159.11793295876123,35.33753171509402,1.7105013222744456,0.00029258147735026276,33.177931153406206,44.303854701625035,3,5,3,6
52,103,333,512,12,32,40,1269,649728,7147008,2909304,2680,6.884671905948502,4.477726063829787,0.0009211825233801624,2.4566040537530625,59.293399419729205,26.792879042895258,4.5746307809803985,0.0020927246782293336,176.97817413392477,35.510604960033305,1.6767555480089378,0.0002811509167778753,33.10251904202839,42.99026604940967,3,4,3,6
53,103,358,512,12,32,40,1269,649728,7147008,3273944,2680,7.206536621014215,5.038945527974783,0.0008185845573412373,2.182996410445628,54.19140429113833,27.960308067602842,3.999305649348437,0.0015994445676910324,183.685758756008,36.88863850988574,1.430764231734689,0.00020470862868113548,33.727495827398386,44.589422026430675,3,4,3,6
54,103,384,512,12,32,40,1269,649728,7147008,3578744,2680,7.344086551090097,5.508064913317573,0.0007488660826256363,1.9970715983037624,49.92668260620388,28.679741471536303,3.6813993086606662,0.0013552700869807232,192.34295595623553,36.54761623815825,1.4880557011302755,0.0002214309769666316,33.626572207418334,41.893454262890124,3,4,3,8
55,103,410,512,12,32,40,1269,649728,7147008,3888504,2680,7.473724269157585,5.9848182624113475,0.0006892110693469776,1.8379839650415686,45.59256125080593,28.761157073863526,3.647053601755639,0.0013300999974078778,215.73998653446324,36.519238059010924,1.4929253657833723,0.00022288261477994162,33.41161796399402,42.80933206049989,3,4,3,6
56,104,77,512,12,32,40,1269,649728,7147008,636344,2680,6.512378086846172,0.9794006107171,0.004211558528091724,11.231359139082006,91.09635808439,5.819714529438217,51.169865275852366,0.26183551123488813,70.79471162194386,38.179209451269486,1.233217069725647,0.00015208243410627114,33.2655142859194,45.34885769122952,5,6,2,4
57,104,102,512,12,32,40,1269,649728,7147008,894136,2680,6.90783232126578,1.376169720252167,0.002997306897384738,7.993200139576082,87.48936617952576,8.931323795836267,35.762989089938394,0.12789913886470522,76.05761215719394,39.830511100050856,1.0197047562329815,0.00010397977898841644,35.00605615670697,45.28845703492734,5,6,2,4
58,104,128,512,12,32,40,1269,649728,7147008,1082552,2680,6.664647360126083,1.6661618400315208,0.0024756316555694323,6.601999719182081,84.85307418153162,12.177975434033254,24.60941150127706,0.060562313443918755,80.47595594241284,39.405504920086216,1.0708404157308002,0.00011466991959625132,34.0072125058593,44.79032821877678,5,5,2,4
59,104,154,512,12,32,40,1269,649728,7147008,1297560,2680,6.6396487673083415,1.997081855791962,0.002065415086778261,5.508036622583926,81.84471040189125,14.494440934686502,18.84855031581,0.03552678490076214,93.24638345837593,37.868166322365326,1.2781790173805638,0.00016337416004719437,33.386742647560325,42.46345974936951,4,5,2,4
60,104,179,512,12,32,40,1269,649728,7147008,1614456,2680,7.107413130472681,2.4848182624113475,0.0016600018829872106,4.42688311109129,77.41074306898776,16.21585161104963,15.4599263075888,0.02390093214360763,99.28297558543272,39.40553126359654,1.0708371679745037,0.00011466922403156551,34.18770542784642,45.18371584195328,4,5,3,4
61,104,205,512,12,32,40,1269,649728,7147008,1845400,2680,7.093736185588806,2.840265464933018,0.0014522596726996857,3.8728774249485207,74.17940486424529,17.556815868737736,13.24827110130544,0.017551668717368483,114.36119972029701,38.84969913624838,1.1416028470239696,0.0001303257060333233,34.005413247800064,44.32413567693948,4,5,3,4
62,104,230,512,12,32,40,1269,649728,7147008,2037560,2680,6.981053208620276,3.13601999605989,0.0013152986905907065,3.5076306955378,71.49072730854645,18.651795791641078,11.679122411996156,0.01364019003143909,120.30121757998131,38.173633287236946,1.2340090241198092,0.00015227782716091242,33.55774159818146,44.130260095958114,4,4,3,4
63,104,256,512,12,32,40,1269,649728,7147008,2236888,2680,6.885613672182821,3.4428068360914104,0.0011980930650081721,3.1950674329693753,68.70175603553263,19.582517675335872,10.4923825437978,0.011009009144539282,125.25273796753027,38.00182405594453,1.2586610624443195,0.00015842276701134633,33.53239857834542,43.21234108807333,4,4,3,5
64,104,282,512,12,32,40,1269,649728,7147008,2435288,2680,6.805179708152395,3.7481653861308115,0.0011004858562929723,2.934769111497285,65.92576921699262,20.41070307326935,9.538165337037213,0.00909765979966582,153.57523581571877,37.216599652161825,1.3777487237316917,0.0001898191545744305,33.811442228643166,43.129108488376566,3,4,3,4
65,104,307,512,12,32,40,1269,649728,7147008,2665464,2680,6.841838581252262,4.102430555555555,0.0010054534595102392,2.6813372831146847,62.70517676767677,21.22665456155787,8.682949434963495,0.0075393610890132886,159.23768529179506,38.04564729003092,1.252326687089784,0.00015683221311972736,34.03346313977514,41.794889930844114,3,4,3,5
66,104,333,512,12,32,40,1269,649728,7147008,2914296,2680,6.896485137619889,4.485409278959811,0.0009196045974739697,2.452396050366881,59.22355200945626,21.81328374424123,8.115883658684533,0.006586756756130265,176.86047444911674,36.29553997979978,1.531873844514832,0.0002346637475508652,33.398805288995,44.820615827043326,3,4,3,5
67,104,358,512,12,32,40,1269,649728,7147008,3257688,2680,7.170754255979503,5.013925827423168,0.0008226693286772705,2.1938896542578665,54.41885611433484,22.72839142160968,7.3043307248564755,0.005335324733808233,183.68981570983306,37.48111713846238,1.336423620942796,0.00017860280946138543,33.83416819570008,43.977079253083076,3,4,3,5
68,104,384,512,12,32,40,1269,649728,7147008,3565016,2680,7.315914762280011,5.486936071710008,0.0007517497817681603,2.0047618299609313,50.11876298445448,23.26623134623236,6.8657570684188745,0.004713862012254374,192.24683042126708,36.45344341954831,1.5042770475036655,0.00022628494356463454,33.60357733830191,42.92354379380148,3,4,3,5
69,104,410,512,12,32,40,1269,649728,7147008,3815736,2680,7.333863806723174,5.872820626477542,0.0007023546702392408,1.8730352414317972,46.610721577476895,23.75559789954135,6.489632516360132,0.004211533019739873,215.66067326674238,36.38188415259489,1.5167213229389391,0.0002300443571457646,33.64231218128843,42.69756322342008,3,4,3,5
70,105,77,512,12,32,40,1269,649728,7147008,669080,2680,6.8474000388894005,1.0297847714736013,0.004005500089675375,10.68184372571292,90.6383202593309,4.644103479835113,58.58613203239833,0.34323348665176096,70.782412315486,39.80719361970792,1.0224458558867004,0.00010453955282198876,33.696103547707196,45.204383858209674,5,6,2,6
71,105,102,512,12,32,40,1269,649728,7147008,907576,2680,7.01166581683895,1.3968552994483845,0.0029529207471330225,7.87483141907675,87.30131545956014,9.318967327040948,34.20201031635343,0.11697775096799468,76.05864978954196,39.87790130056223,1.0141563983303699,0.00010285132002744277,34.24332438758497,44.702291673940955,5,6,3,6
72,105,128,512,12,32,40,1269,649728,7147008,1115992,2680,6.870518124507486,1.7176295311268714,0.0024014509064581107,6.404174940322153,84.38518608066481,13.725052702916367,20.594315647457844,0.0424125836987127,80.46275300090201,39.06399639909255,1.1137819618749227,0.0001240510258597952,34.15995833709336,45.732047247524235,5,6,3,6
73,105,154,512,12,32,40,1269,649728,7147008,1350904,2680,6.9126114232497216,2.07918390464933,0.0019838567359338637,5.290537299467616,81.09832813955154,17.042008967651768,14.057223556703235,0.01976055341231324,93.21672387421131,38.05733374253065,1.250642873934802,0.0001564107598123901,33.36487076758064,43.37545561157995,4,6,3,6
74,105,179,512,12,32,40,1269,649728,7147008,1643000,2680,7.233074034452853,2.5287504925137902,0.0016311625076080342,4.349974437005478,77.01135915896555,19.363608075960226,10.760181481198952,0.011578150550833687,99.26611869828776,37.640360174868334,1.3121454875948495,0.00017217257806155257,33.59200361451844,43.77572293963387,4,6,3,6
75,105,205,512,12,32,40,1269,649728,7147008,1890424,2680,7.266808895039305,2.9095621552403466,0.0014176713795423673,3.7806375712538562,73.54943495236049,21.065666203034464,8.845383967321101,0.007824081752934118,114.35383909195662,38.242274115635915,1.2242956156029574,0.00014988997543846243,34.10070160469776,46.05887331240585,4,5,3,7
76,105,230,512,12,32,40,1269,649728,7147008,2096376,2680,7.182567581457498,3.2265440307328603,0.0012783966235064702,3.409220483348407,70.66778153879218,22.58307675913491,7.427559885628132,0.00551686458545922,120.35481292381883,37.77647000343424,1.2917441393573839,0.00016686029215641482,34.356079669770416,44.181930745911245,4,5,3,7
77,105,256,512,12,32,40,1269,649728,7147008,2309816,2680,7.11010145784082,3.55505072892041,0.0011602655795959504,3.094189320707797,67.68135700981446,23.84908657968386,6.42015733231603,0.004121842017169129,125.29914812440984,37.73139671752497,1.298464749951657,0.00016860107068670193,33.34498982116734,44.19763318879362,4,5,3,7
78,105,282,512,12,32,40,1269,649728,7147008,2518232,2680,7.036958793711472,3.8758249605988966,0.0010642387198637774,2.8381054644687227,64.76522763091911,24.972110994410507,5.641498152835603,0.003182650140844753,153.57006082427688,37.34680182242648,1.3572501829825083,0.00018421280592060527,33.63657809432547,42.94784182920834,4,5,3,7
79,105,307,512,12,32,40,1269,649728,7147008,2745048,2680,7.046118542133512,4.224918735224587,0.0009763035109039988,2.6036003742011067,61.59164786159467,25.737547353663118,5.16562211046479,0.002668365178812271,159.31371275056154,37.270368488384385,1.369246298537428,0.00018748354260584476,33.66259626989503,42.59936682214099,3,5,3,7
80,105,333,512,12,32,40,1269,649728,7147008,3023960,2680,7.155997605170182,4.654193754925138,0.0008862551091945661,2.36345983412479,57.68914768249875,26.745585053016267,4.599607223547474,0.0021156386610910096,176.82880387129262,37.326040339896366,1.3604982359631537,0.00018509554500588526,33.82026796562324,42.38048817243114,3,5,3,7
81,105,358,512,12,32,40,1269,649728,7147008,3365080,2680,7.407143265933234,5.179213455476753,0.000796414944072652,2.1238746181368646,52.9162413138477,27.36687794162485,4.282093075899338,0.0018336321110665056,183.65244667558,37.515992279030094,1.3310684391792427,0.0001771743189779065,34.171916805028715,42.3771970496358,3,5,3,8
82,105,384,512,12,32,40,1269,649728,7147008,3648952,2680,7.488163251904386,5.61612243892829,0.0007344574551816521,1.958646756657802,48.94434146428827,27.981842469982585,3.9894026930026305,0.0015915333846936639,192.3511997780297,37.090936898365186,1.3978261314992115,0.00019539178939020509,33.39013908890479,44.245191425707866,3,5,3,7
83,105,410,512,12,32,40,1269,649728,7147008,3903512,2680,7.5025697207326685,6.007917159180457,0.0006865612299898143,1.830917389263822,45.382571280177665,28.7283809680052,3.6608417153673045,0.0013401762064973429,215.62359178997576,37.80716235494908,1.2871877033682493,0.0001656852183702428,33.703748070755466,43.17471348849617,3,5,3,8
84,106,77,512,12,32,40,1269,649728,7147008,714840,2680,7.315710294433699,1.100214243498818,0.003749090705612445,9.99805271109619,89.99805233182893,4.51919962259246,59.43469232917224,0.3532482652263366,70.71136538148858,39.160092297126305,1.1015276045374536,0.00012133630635580205,33.64574609540403,46.04916803502889,5,6,2,4
85,106,102,512,12,32,40,1269,649728,7147008,930520,2680,7.188924427138862,1.43216853821907,0.0028801100459957874,7.680660275974724,86.98028601619028,8.649889996853997,36.94073227173268,0.13646177007718321,76.06745129381306,39.267618330179694,1.0879754194546307,0.00011836905133374794,33.84244747037123,45.16986658781935,4,5,3,4
86,106,128,512,12,32,40,1269,649728,7147008,1172792,2680,7.220202915681639,1.8050507289204099,0.002285145191986303,6.0940115553312095,83.59044791890537,12.567255831138569,23.530827950974988,0.05536998640583858,80.46691811736673,37.518726393046386,1.3306495160399943,0.0001770628134537471,33.296032782860394,43.569583060280664,4,5,3,5
87,106,154,512,12,32,40,1269,649728,7147008,1445720,2680,7.397787397787398,2.225115740740741,0.0018537476136457958,4.943563068920676,79.77167508417509,16.22948380210493,15.435681540498091,0.023826026461967357,93.22530877985992,38.33572153250586,1.2111945929622512,0.0001466992342020993,33.67936484698501,43.121871358417295,4,5,3,5
88,106,179,512,12,32,40,1269,649728,7147008,1693080,2680,7.453544118229724,2.60582890070922,0.001582913979256739,4.22130554964916,76.31064635718892,18.288238966906796,12.178338792849715,0.014831193575342823,99.22322992328554,37.94170234283223,1.2674034437962187,0.0001606311489346515,33.59840280436704,43.856966850176626,4,5,3,5
89,106,205,512,12,32,40,1269,649728,7147008,1913368,2680,7.355005862115359,2.9448753940110324,0.0014006714860915412,3.735302356891095,73.22840550899062,20.560244926491706,9.375355697334815,0.008789729445154836,114.37139713135548,37.92768182890388,1.269450902113689,0.00016115055928772587,33.539078364496966,43.403218539582156,3,4,3,5
90,106,230,512,12,32,40,1269,649728,7147008,2128536,2680,7.292753623188406,3.2760416666666665,0.0012590813592065157,3.357710651828299,70.21780303030303,22.286341972550048,7.685690672988993,0.005906984112086999,120.29592990828678,38.886874674120136,1.1367272372380226,0.00012921488118787874,35.060997163676134,43.16994784451418,3,4,3,5
91,106,256,512,12,32,40,1269,649728,7147008,2369688,2680,7.29440011820331,3.647200059101655,0.0011309505723960285,3.016012234522013,66.84363582634859,23.426900654652,6.739923501037606,0.0045426568799839025,125.31925823143683,36.50595857458521,1.4952095810689081,0.00022356516913202594,34.23350412265783,43.90960135470919,3,4,3,5
92,106,282,512,12,32,40,1269,649728,7147008,2638488,2680,7.373002699394732,4.060911643026005,0.0010157332532874889,2.7087513757879513,63.08262142703632,24.533990088310553,5.93335721450091,0.0035204727834870003,153.55161188426428,36.8012999736147,1.4452234552001235,0.00020886708354605834,33.00761823135045,44.67852433832809,3,4,3,5
93,106,307,512,12,32,40,1269,649728,7147008,2899224,2680,7.441864763092846,4.462211879432624,0.0009243852837862821,2.465145156083145,59.43443745970342,25.358045461553594,5.396320393129852,0.002912027378530912,159.189802485751,36.558348599776295,1.4862181818816738,0.00022088444841556683,33.29377663261759,45.29893130505704,3,4,3,5
94,106,333,512,12,32,40,1269,649728,7147008,3210136,2680,7.596570565837705,4.940738278171789,0.0008348555949031443,2.2263879162751983,55.08419747116556,26.14919579167978,4.926519548501503,0.0024270594861767448,176.8192579371389,37.027084234089585,1.4081398474345137,0.00019828578299328954,33.99327888839006,45.97642749776457,3,4,3,5
95,106,358,512,12,32,40,1269,649728,7147008,3465560,2680,7.628317726974568,5.333862785657998,0.0007733237918258521,2.0622952711827236,51.51033831220001,26.680498361551884,4.634203297714151,0.002147584020454471,183.69100765092298,36.600598476810134,1.4790064778733427,0.00021874601615913105,33.05006693671891,43.68455165967474,3,4,3,6
96,106,384,512,12,32,40,1269,649728,7147008,3736664,2680,7.668160625164171,5.751120468873128,0.0007172172825814683,1.9126707672940355,47.717086646607925,27.54913357346021,4.19317821988073,0.0017582743583682127,192.37337725702673,37.126273538380666,1.3921509339463944,0.0001938084222887818,33.922021278509995,45.305608721776494,3,4,3,5
97,106,410,512,12,32,40,1269,649728,7147008,3966008,2680,7.62268734744085,6.104105102442868,0.0006757424594201524,1.8020659564983228,44.50813543233756,28.124597772496266,3.9243714846707807,0.0015400691549697148,215.61484978115186,37.46082456185308,1.33954951635804,0.0001794392906775059,33.765121655672665,43.918493079730844,3,3,3,5
98,107,77,512,12,32,40,1269,649728,7147008,774840,2680,7.929753461668355,1.1925605791962175,0.0034587785865469,9.223850085178876,89.15854018912529,5.627504889175762,52.3148224288947,0.2736840645766784,70.7537132462021,39.22696195527117,1.093079884508355,0.00011948236339167983,33.438233863851316,45.358068288014145,6,6,3,4
99,107,102,512,12,32,40,1269,649728,7147008,1012376,2680,7.82131985970117,1.5581535657998424,0.0026472377851707272,7.0596379210886075,85.83496758363779,9.254516750508024,34.45673814525699,0.11872668036108082,76.06930655776523,38.51267634561463,1.1867689707099234,0.0001408420589839891,33.92472579790219,45.848094044762576,5,6,3,4
100,107,128,512,12,32,40,1269,649728,7147008,1304504,2680,8.031077620173365,2.0077694050433412,0.002054420684030099,5.478716814973354,81.74755086324235,13.100077060297906,22.130750753495953,0.04897701289133617,80.4667522420641,38.13794895479249,1.2390891446816865,0.00015353419084679937,34.46344625494283,45.5177368059565,5,6,3,5
101,107,154,512,12,32,40,1269,649728,7147008,1572024,2680,8.044088299407449,2.4195109338061465,0.0017048085779860867,4.546373337811636,78.00444605630776,17.019686236278833,14.09339707620897,0.019862384114769552,93.27166228508577,37.4082748684272,1.3476783653594357,0.00018162369764578812,33.755060627730444,45.295473886265405,5,5,3,5
102,107,179,512,12,32,40,1269,649728,7147008,1786424,2680,7.864477814317349,2.749495173364854,0.0015002037590180158,4.000734428108893,75.00458933304678,19.96737007437143,10.03763724104648,0.010075416138284322,99.36418870952912,37.202317046488325,1.3800160826342245,0.00019044443883291107,33.49674375275074,44.41357533180825,5,5,3,5
103,107,205,512,12,32,40,1269,649728,7147008,2027800,2680,7.7948836225950915,3.1209983254531126,0.0013216293520071014,3.5245132656080482,71.62728795042625,22.16004558746253,7.79826017634201,0.0060812861777921725,114.38814638811164,37.79108956830524,1.2895717823373687,0.00016629953818007783,33.51108851147613,43.174816033326906,4,5,3,5
104,107,230,512,12,32,40,1269,649728,7147008,2291992,2680,7.852783773597834,3.5276177107959024,0.001169288549000171,3.118251721646498,67.93074808367362,24.15316765600763,6.1992852076909,0.00384311370862952,120.39307452295907,37.21919900748769,1.377336477799682,0.00018970557730776336,33.40291622217973,45.40206071999888,4,5,3,5
105,107,256,512,12,32,40,1269,649728,7147008,2626680,2680,8.085475768321514,4.042737884160757,0.0010202993893432012,2.7209283201608114,63.247837416720394,25.650263468839245,5.21779276883239,0.0027225361378479572,125.27722475188784,37.596133105113935,1.3188437475238322,0.00017393488303827056,33.37958980213817,45.707159754477345,4,5,3,5
106,107,282,512,12,32,40,1269,649728,7147008,2897720,2680,8.09740176271035,4.4598970646178095,0.0009248650663280096,2.4664246373010505,59.45548123074719,27.35213827326675,4.28936581573105,0.0018398659101162098,153.56664663227275,38.336250767401985,1.2111207966163031,0.00014668135839965085,33.41413378966228,45.107737093421655,4,5,3,5
107,107,307,512,12,32,40,1269,649728,7147008,3169560,2680,8.135775945048938,4.8782875295508275,0.0008455432299751385,2.2548896376784158,55.651931549537935,28.717844253891588,3.6652853187210477,0.001343431646763205,159.2843058516737,39.78408034354121,1.0251702220678471,0.00010509739842146393,35.24539804944786,45.674681628670136,4,5,3,5
108,107,333,512,12,32,40,1269,649728,7147008,3454904,2680,8.17579754695594,5.31746207643814,0.0007757089632591817,2.068656032121298,51.65943566874418,29.645147214877436,3.2941444496889662,0.0010851387655416622,176.94297582190484,39.032431501594125,1.1178368569222075,0.00012495592386937198,33.76189300223837,45.21069509832733,4,4,3,6
109,107,358,512,12,32,40,1269,649728,7147008,3673112,2680,8.08517682070517,5.653307230102443,0.0007296265401109468,1.945763701188529,48.60629790815961,30.661687332157552,2.9303239414355975,0.0008586798401750656,183.70194576471113,37.98480451601068,1.2611297598714672,0.00015904482712334643,34.45419960094002,44.742470365919054,4,4,4,6
110,107,384,512,12,32,40,1269,649728,7147008,3900312,2680,8.003989361702128,6.0029920212765955,0.0006871245172181097,1.8324195602813313,45.42734526112186,31.509866137549793,2.6577045084095126,0.0007063393254020248,192.22515350906178,38.25721880399408,1.2221909394188806,0.00014937506923976058,33.37799753230921,44.190667418457295,4,4,3,5
111,107,410,512,12,32,40,1269,649728,7147008,4133144,2680,7.943923581079782,6.361345055161545,0.0006484167984468966,1.7291940469531184,42.16959040762232,32.18706666145328,2.458366713638218,0.0006043566898724372,215.6167654832825,37.63131035545069,1.3135133230687874,0.00017253172498792087,33.59269739706425,43.43997468043194,4,4,3,5
112,108,77,512,12,32,40,1269,649728,7147008,712824,2680,7.295078444014615,1.0971114066193854,0.0037596938374689966,10.026329079828962,90.02625993982377,8.405426398620964,37.99519520286037,0.1443634858503464,70.68904885393567,39.01001506015994,1.1207254829482864,0.000125602560812967,33.176332612085595,47.89318772615219,5,6,2,5
113,108,102,512,12,32,40,1269,649728,7147008,983288,2680,7.596594508567809,1.5133840622537431,0.0027255493812596105,7.268478818006525,86.24196307042051,12.741254852547732,23.064139564751695,0.05319545338623445,76.02816154831089,40.01938794270311,0.9977703699333876,9.955457111170092e-05,33.7549317283924,46.335617492356086,5,6,3,5
114,108,128,512,12,32,40,1269,649728,7147008,1202360,2680,7.402236012608353,1.8505590031520882,0.002228949732193353,5.944149838650653,83.17673633498102,16.644199108136174,14.716008994195406,0.02165609207172401,80.39896632730961,38.853085171348276,1.141157900781217,0.00013022413545153935,33.76394693837317,44.63228623281123,5,6,3,5
115,108,154,512,12,32,40,1269,649728,7147008,1419544,2680,7.263844114907945,2.184828112687155,0.001887930208574021,5.034721009000073,80.13792624829858,18.979716763494373,11.246416465922755,0.012648188332497846,93.19922347809188,38.23173884729946,1.2257814862289886,0.00015025402519817482,32.970318515795384,45.446753305890944,4,6,3,5
116,108,179,512,12,32,40,1269,649728,7147008,1701080,2680,7.488762981452866,2.6181417454688733,0.0015754697016013355,4.201453194441179,76.19871140482843,20.826329493905124,9.092504513396966,0.008267363832614418,99.34367597359233,38.283666829454106,1.218475099685875,0.00014846815685545033,33.56333287454919,46.25583914779198,4,6,3,5
117,108,205,512,12,32,40,1269,649728,7147008,1974136,2680,7.588598666128505,3.0384037628053586,0.0013575559130677927,3.620322004157768,72.37814761086038,21.872478868866793,8.060761221986109,0.0064975871477874975,114.37243194621988,38.37880767827768,1.2052013683483398,0.00014525103382687107,33.86726788685138,46.04533511117353,4,6,3,5
118,108,230,512,12,32,40,1269,649728,7147008,2227928,2680,7.633288792955768,3.429016449960599,0.0012029114046773505,3.2079169524329334,68.82712318217638,22.96731787503747,7.106145675441172,0.005049730636059128,120.31554861692712,39.24028858792234,1.0914040740415982,0.00011911628528345982,33.95640380586497,45.46980018016821,4,5,3,6
119,108,256,512,12,32,40,1269,649728,7147008,2434424,2680,7.493671197793538,3.746835598896769,0.001100876429085484,2.935810688688577,65.93785819184755,23.74579273963274,6.496962544314779,0.0042210522302229166,125.35481317806989,38.7972828922695,1.148512841473767,0.0001319081747030146,34.00418230282179,44.74628881457236,4,5,3,6
120,108,282,512,12,32,40,1269,649728,7147008,2630264,2680,7.350021516914531,4.048254038613081,0.0010189091285133355,2.71722078087979,63.197690558062895,24.401117077107717,6.0248209692056,0.0036298467710979515,153.56552621768788,38.242646184138195,1.2242431728367242,0.00014987713462373293,33.744794344486074,44.16748044070225,4,5,3,5
121,108,307,512,12,32,40,1269,649728,7147008,2862616,2680,7.347897623869625,4.4058683018124505,0.0009362066026319981,2.4966701786058625,59.946651801704995,24.88000051499613,5.701642384750695,0.003250872588358559,159.22328208130784,38.2172428412242,1.2278289185912012,0.00015075638533288386,33.990938233701264,45.42842613628677,4,5,3,6
122,108,333,512,12,32,40,1269,649728,7147008,3066712,2680,7.257167332817451,4.719993597320725,0.0008739001249546746,2.3305116359149474,57.09096729708432,25.665196266310613,5.208830036469875,0.0027131910348830754,176.90931181120686,38.350172035727034,1.2091812332453244,0.00014621192548326838,33.7464778383123,44.04427230373489,3,5,3,6
123,108,358,512,12,32,40,1269,649728,7147008,3367480,2680,7.412426095416706,5.18290730890465,0.0007958473398505708,2.1223609345861,52.88266082813955,26.04273993561068,4.987271407910403,0.002487287609616062,183.69898912031204,38.20447865334295,1.229634578198131,0.00015120011959004958,33.216068964991614,44.4502035045595,3,5,3,6
124,108,384,512,12,32,40,1269,649728,7147008,3695128,2680,7.582922905174678,5.687192178881008,0.0007252793407968547,1.934170616011137,48.29825291926356,26.025965375731698,4.996912345289037,0.002496913298650199,192.2632818305865,36.45753409636182,1.5035687651394125,0.00022607190315028578,33.18414624982748,43.09901659646467,3,5,3,6
125,108,410,512,12,32,40,1269,649728,7147008,3973976,2680,7.638001883564935,6.116368695823483,0.0006743875655011505,1.7984527334840472,44.39664821978652,27.22799336664578,4.351112693841267,0.0018932181674506604,215.49854207225144,39.061842515478276,1.1140581862207055,0.00012411256422853678,35.021765326588394,45.00365612121637,3,5,3,6
126,109,77,512,12,32,40,1269,649728,7147008,639992,2680,6.549711911414039,0.9850152679275019,0.004187552344404305,11.167339591744897,91.04531574611362,5.270173969515416,54.51189774021241,0.29715469952393747,70.73432528227568,38.8583666822623,1.140464223318058,0.00013006586446684612,33.27783614364641,45.79474765627165,5,6,2,5
127,109,102,512,12,32,40,1269,649728,7147008,904920,2680,6.991146340332824,1.3927674349881796,0.0029615877646642797,7.897944569685718,87.33847786374382,10.620312770406796,29.443156099589586,0.08668994411047994,76.05864317552187,39.80497063698833,1.0227075642940484,0.00010459307620642651,35.59077124918511,44.32690086230236,5,6,3,5
128,109,128,512,12,32,40,1269,649728,7147008,1109464,2680,6.830328999211978,1.7075822498029944,0.0024155808570625096,6.4418566082360496,84.47652500179096,15.611952637229523,16.57304723470824,0.02746658946438705,80.48150256997906,38.292469682147434,1.2172408423041705,0.00014816752681733663,33.79743509050167,43.62895890197717,5,6,3,5
129,109,154,512,12,32,40,1269,649728,7147008,1316760,2680,6.737895674065887,2.02663268321513,0.002035298763631945,5.427722591816276,81.57606651622609,19.085468421538764,11.11032028730034,0.01234392168863975,93.21733593358658,38.380815075355095,1.2049228662878215,0.00014518391137032592,33.638264838441195,43.33356833583144,4,5,3,5
130,109,179,512,12,32,40,1269,649728,7147008,1652408,2680,7.274491417603269,2.5432303979511426,0.0016218754690124958,4.325207817923903,76.87972365498962,21.84340270543275,8.087789971764957,0.00654123466273818,99.25290632410906,39.14350640515269,1.103633004563107,0.00012180058087609911,34.13648185726081,43.992057037817524,4,5,3,5
131,109,205,512,12,32,40,1269,649728,7147008,1908664,2680,7.3369236387399335,2.937635441292356,0.0014041235125721446,3.7445082005004546,73.29422326097858,23.415778379799438,6.748559495793879,0.004554305526826973,114.4117079761345,37.93230509323593,1.268775387498413,0.0001609790983921748,33.640181989225404,42.168606334142844,4,5,3,6
132,109,230,512,12,32,40,1269,649728,7147008,2111512,2680,7.234426285675129,3.2498399330181247,0.001269232663607879,3.3847820898010523,70.45600060892615,24.976384604391267,5.6387231195775716,0.0031795198419258624,120.35398893128149,37.94731758810825,1.266584358870221,0.0001604235938134689,33.713366303764595,41.94014232923147,4,5,3,5
133,109,256,512,12,32,40,1269,649728,7147008,2330168,2680,7.172749211977935,3.5863746059889676,0.001150131664326349,3.06716425596781,67.39659449100938,26.239140281436534,4.875767474557305,0.002377310846595092,125.29955975431949,37.16539051928085,1.3858954662372909,0.00019207062433370775,33.344352501559044,44.77021493736095,4,5,3,5
134,109,282,512,12,32,40,1269,649728,7147008,2555352,2680,7.140687088174639,3.932956560283688,0.0010487791897163287,2.7968780817672085,64.24584945196648,27.163302966170743,4.383639702715488,0.0019216297043223533,153.56154917390086,36.579991878660145,1.4825194713066503,0.000219786398280335,33.95002591216532,45.723296287852236,4,4,3,6
135,109,307,512,12,32,40,1269,649728,7147008,2769560,2680,7.109037098641368,4.262645291568164,0.000967662733430581,2.5805572004217274,61.248679167562145,28.284623924326645,3.852732032741795,0.0014843544116114726,159.21606409666128,36.97685550896351,1.4163064225288253,0.00020059238824963994,33.600671431570646,40.34401693521756,3,4,3,6
136,109,333,512,12,32,40,1269,649728,7147008,3004440,2680,7.109804840301294,4.624150413711584,0.0008920131538656122,2.3788153532771497,57.96226896625833,28.837431895247775,3.615167343184506,0.001306943491922772,176.8678747417871,36.51422996434278,1.4937864022165692,0.00022313978154471224,33.56422483349708,42.79469051393599,3,4,3,6
137,109,358,512,12,32,40,1269,649728,7147008,3300984,2680,7.2660564998613255,5.080562943262412,0.0008118791245277165,2.165114402250965,53.813064152159896,29.42036585226519,3.380505971140127,0.001142782062091405,183.76280746632256,36.08400932673452,1.5696381065823943,0.0002463763785635564,33.55389640553219,43.75464274100046,3,4,3,6
138,109,384,512,12,32,40,1269,649728,7147008,3659608,2680,7.510030864197531,5.632523148148148,0.0007323188713108071,1.9529435939586972,48.79524410774411,29.988772857045568,3.166367776442755,0.0010025884895695039,192.22304091067053,36.33276200667282,1.5253232835330321,0.00023266111192879907,33.193347101627246,42.77089455393393,3,4,3,6
139,109,410,512,12,32,40,1269,649728,7147008,3975832,2680,7.641569124911107,6.119225275807723,0.0006740727475406406,1.7976131788264695,44.37067931083889,30.78603009218924,2.888673753156558,0.0008344436052175594,215.66758249443956,36.7487580388347,1.453992271375824,0.00021140935252206278,33.42940799096118,43.79857951932557,3,4,3,6
140,111,77,512,12,32,40,1269,649728,7147008,751736,2680,7.693305906071863,1.1570010835303388,0.003565081358349208,9.507337682377855,89.48180833154237,6.667243200749112,46.41280754019253,0.21541487037629525,70.69113941234536,38.9700437533103,1.1258947974265507,0.00012676390948721734,33.29863356307294,46.01460427072027,5,6,2,4
141,111,102,512,12,32,40,1269,649728,7147008,980152,2680,7.572366692934069,1.508557427107959,0.0027342697867269567,7.2917343432447215,86.28584157174582,9.638889622369865,32.96518511708053,0.10867034298033876,76.01795300887898,40.004637506116545,0.9994662298833494,9.989327446772363e-05,33.957166032545125,45.302792246462104,4,6,2,5
142,111,128,512,12,32,40,1269,649728,7147008,1221560,2680,7.520439322301025,1.8801098305752562,0.0021939159762926095,5.850722027571302,82.90809244931586,13.462330332298697,21.22674894381542,0.0450574870723769,80.46776380203664,39.455401853104966,1.064706504695079,0.00011335999411400121,33.73994364261027,44.244913734358356,4,6,2,5
143,111,154,512,12,32,40,1269,649728,7147008,1497464,2680,7.662562811498982,2.304755220646178,0.0017896924400185915,4.772741114310595,79.04767981230748,16.660289020456247,14.68877400361591,0.021576008172930254,93.22132497606799,37.85221891288262,1.280527926797032,0.00016397517713071045,33.992447090944275,46.23577105285243,4,6,3,5
144,111,179,512,12,32,40,1269,649728,7147008,1735608,2680,7.640767595123949,2.6712839834515365,0.001544127475789464,4.117869933763846,75.71560015044058,18.971153173952832,11.257509997024433,0.012673153133310508,99.277063857764,38.8399136994356,1.1428896901649166,0.0001306196843885259,33.271199536813604,45.16009761007382,4,5,3,5
145,111,205,512,12,32,40,1269,649728,7147008,1987320,2680,7.639278094908609,3.0586953309692673,0.0013485498057685728,3.5963045709800134,72.1936788093703,20.94358722841642,8.970582374794901,0.008047134814298093,114.2774987288285,38.938496992172844,1.1299914316665833,0.00012768806356398948,33.610853907567794,45.77061016119253,3,5,3,6
146,111,230,512,12,32,40,1269,649728,7147008,2196280,2680,7.524856956864357,3.3803068360914104,0.0012202451417852003,3.25414245906715,69.26993785371445,22.273374382061537,7.697173586975022,0.005924648122802592,120.29494062787853,37.9885732733754,1.2605826816455992,0.000158906869726481,33.6280714618557,45.110943913393626,3,5,3,5
147,111,256,512,12,32,40,1269,649728,7147008,2455000,2680,7.557008471237195,3.7785042356185974,0.0010916496945010184,2.9112048879837067,65.64996149437638,23.612770528900665,6.597227696353518,0.004352341327753394,125.35616011079401,38.300368417784476,1.2161344164024728,0.00014789829187585832,33.469974445579005,44.27771756619126,3,5,3,6
148,111,282,512,12,32,40,1269,649728,7147008,2699000,2680,7.542097703558395,4.154046000788022,0.0009929603556872917,2.648020748425343,62.23594544738162,24.23971127081676,6.137824076745222,0.0037672884397073336,153.51308922399767,37.08012739092056,1.3995667957852187,0.00019587872158645037,33.26505954172554,43.48331598622638,3,5,3,5
149,111,307,512,12,32,40,1269,649728,7147008,2962040,2680,7.60310383153269,4.558892336485422,0.0009047818395430177,2.4128668080106954,58.5555242137689,25.221041485755944,5.482112274500744,0.003005355499023172,159.20759043749422,37.713864824534454,1.3010882618573048,0.00016928306651428624,34.07699967877003,44.64475532413987,3,5,3,6
150,111,333,512,12,32,40,1269,649728,7147008,3263608,2680,7.723108451240839,5.023037332545312,0.0008211770531264785,2.1899100627281216,54.33602424958808,25.729183507462835,5.170598604368899,0.0026735089927501605,176.72819757228717,37.50099167482174,1.3333691916680304,0.00017778734012894568,33.21429291803182,44.370975690772575,3,5,3,6
151,111,358,512,12,32,40,1269,649728,7147008,3514168,2680,7.735312633446474,5.408675630417652,0.0007626271709263758,2.0337695864284235,50.830221541657714,26.567764759051304,4.694742340351243,0.0022040605642286663,183.51142689352855,38.47848676428748,1.191449561549012,0.00014195520577153328,33.76264901650015,45.62372705396344,3,4,3,6
152,111,384,512,12,32,40,1269,649728,7147008,3772888,2680,7.742497373259785,5.806873029944838,0.0007103311839630543,1.8943069606094853,47.21024518231965,26.982046280266744,4.476078412899895,0.002003527795842844,192.1904812909197,38.38152212318916,1.204824787280999,0.00014516027680467044,33.87027636477148,44.532090866095245,3,4,3,6
153,111,410,512,12,32,40,1269,649728,7147008,4013336,2680,7.713652001768245,6.176947892040977,0.0006677736426753205,1.78081476357823,43.84592825417293,27.143240048365247,4.393776862876519,0.0019305275120749025,215.59196389978752,37.60525083587842,1.317460060467639,0.00017357010109273952,33.682821586646426,43.462616526456976,3,4,3,6
154,112,77,512,12,32,40,1269,649728,7147008,660344,2680,6.757995353740035,1.01633914499606,0.004058490726045819,10.823158838423609,90.76055322730855,13.111737470318023,22.10106116458043,0.04884569046005253,70.75507722911425,37.693999162977114,1.3040674108273338,0.00017005918119819059,34.345509047264066,51.69952948763849,6,6,2,4
155,112,102,512,12,32,40,1269,649728,7147008,876344,2680,6.770376550935583,1.3487859535066982,0.00305815980938992,8.155482322010535,87.73830951357547,15.957360643604554,15.926926204706144,0.02536669783301552,75.98626022646204,39.73441398563515,1.031048988968405,0.00010630620176527701,33.999529841703556,49.099158721868925,6,6,3,4
156,112,128,512,12,32,40,1269,649728,7147008,1062872,2680,6.543488967691095,1.6358722419227738,0.00252147012998743,6.724241489097464,85.12843416433842,18.369965714880884,12.06428850227941,0.014554705706623119,80.38908442598768,37.39506702981772,1.3497292155666438,0.00018217689553541474,34.09335388295725,47.35037312782567,6,6,2,4
157,112,154,512,12,32,40,1269,649728,7147008,1218008,2680,6.232579083642913,1.87464292750197,0.0022003139552449575,5.867784119644535,82.95779156816391,20.784274335280518,9.136635160622884,0.008347810205833037,93.27444037911482,36.64544090423422,1.471390524005377,0.00021649900741328184,34.105026367976095,45.67431067601913,6,6,2,4
158,112,179,512,12,32,40,1269,649728,7147008,1387000,2680,6.106070411312299,2.134739460204886,0.001932227829848594,5.152853640951695,80.59327763450104,23.587242376767268,6.616645714653735,0.0043780000513245635,99.23239425732754,37.61288240702677,1.3163030259020376,0.000173265365599886,33.838559048777746,44.455834980350375,6,6,2,4
159,112,205,512,12,32,40,1269,649728,7147008,1605016,2680,6.169697668607892,2.4702891055949565,0.0016697652858289264,4.452920095500605,77.54282631277312,25.826448572960757,5.113020940009139,0.0026142983132971935,114.37394417123869,39.098229325116144,1.109400950784319,0.00012307704696011508,33.7022219604947,42.34902946809696,6,6,2,5
160,112,230,512,12,32,40,1269,649728,7147008,1745400,2680,5.98005961558228,2.6863549054373523,0.0015354646499369771,4.094767961498797,75.57859176875134,26.609994037842387,4.671972718647426,0.0021827329083785826,120.39070274261758,38.353794090711524,1.208677104360344,0.00014609003426049055,35.156076173818235,41.07280329376917,6,6,3,5
161,112,256,512,12,32,40,1269,649728,7147008,1886552,2680,5.807205476753349,2.9036027383766747,0.0014205810388475907,3.788397033317926,73.60361146930296,26.294146354054302,4.844987738545828,0.0023473906186659414,125.3402096487116,35.758703691427456,1.629539211878242,0.00026553980430487625,33.41769333932675,41.42561435646197,5,6,2,5
162,112,282,512,12,32,40,1269,649728,7147008,2200024,2680,6.147756931520323,3.3860692474389285,0.001218168529070592,3.24860456067752,69.21755229600974,29.08733767365535,3.512635743944393,0.001233860986963578,153.50803493126296,38.76988661714168,1.152141099413444,0.00013274291129576198,35.17753078056035,43.22034223889616,5,6,3,5
163,112,307,512,12,32,40,1269,649728,7147008,2614232,2680,6.710333869804381,4.023579097714736,0.0010251576753708164,2.7338843683345626,63.42200820259331,28.74608254148228,3.6533886307390766,0.0013347248487213545,159.25747297680937,37.947553707661136,1.266549928169386,0.00016041487205458767,34.01286119162002,45.340390647143465,5,5,2,5
164,112,333,512,12,32,40,1269,649728,7147008,2832504,2680,6.702929880234845,4.3595227541371155,0.0009461592993337344,2.523211970750968,60.36797496238986,27.20965128432206,4.3603106915232175,0.0019012309326611678,176.8202728831675,35.46102032363825,1.6863549191586984,0.000284379291337074,33.75585279716857,38.40475274052217,5,5,3,5
165,112,358,512,12,32,40,1269,649728,7147008,3042872,2680,6.697905798345594,4.683301319936958,0.0008807468733485996,2.3487705036557567,57.42453345511856,32.47417571545558,2.378434600745093,0.0005656951150021471,183.66327715385705,41.09611327698117,0.8814432090355777,7.769421307549371e-05,33.782971864067854,44.4809859796947,5,5,2,5
166,112,384,512,12,32,40,1269,649728,7147008,3202648,2680,6.572284607302338,4.929213455476753,0.0008368075417591942,2.2315933564974983,55.18896858657497,32.311361496565326,2.423438065505848,0.0005873052057342727,192.28463178197853,40.335160168712974,0.9621482439848845,9.257292434031968e-05,35.84294676619867,43.15628527290253,5,5,3,5
167,112,410,512,12,32,40,1269,649728,7147008,3402584,2680,6.539783582232985,5.236936071710008,0.0007876366902330699,2.1004648232049523,52.391490257181744,30.99065291960992,2.821417488749019,0.000796039664581882,215.5396781542804,38.87648752360766,1.1380874225747073,0.00012952429814227403,34.580899330881046,41.63804218800828,5,5,3,5
168,113,77,512,12,32,40,1269,649728,7147008,746680,2680,7.641562535179556,1.149219365642238,0.0035892216210424814,9.571714790807308,89.5525512214342,3.4365045656090474,67.32475345977271,0.4532622428419176,70.72510334150866,40.01166983575185,0.9986573626531196,9.973165279812844e-05,33.93445162106219,45.58445879667766,5,6,3,4
169,113,102,512,12,32,40,1269,649728,7147008,985144,2680,7.610933419861246,1.5162406422379826,0.0027204144774774044,7.25478508725628,86.21599416147288,6.5749766630784165,46.90845908286194,0.22004035335285332,76.03069218830206,39.10739717618639,1.1082306092976548,0.00012281750833842515,33.29092176098555,45.96359713582319,4,6,3,5
170,113,128,512,12,32,40,1269,649728,7147008,1259160,2680,7.751920803782506,1.9379802009456264,0.002128403062359033,5.676012579815115,82.38199817322158,12.549001571991683,23.580332322297316,0.05560320724299794,80.48834360414185,39.14700577110045,1.1031884631220956,0.00012170247851656915,34.49387616241746,46.06837757002836,4,5,3,4
171,113,154,512,12,32,40,1269,649728,7147008,1515032,2680,7.752458731182135,2.3317942277383765,0.001768939533950438,4.717397388305989,78.80187065692385,16.23810671990315,15.420365369943227,0.023778766814254428,93.21741431835108,38.41431970136903,1.2002839945202435,0.0001440681667501472,34.695354612460434,45.23869085497668,4,5,3,5
172,113,179,512,12,32,40,1269,649728,7147008,1757240,2680,7.735999401279325,2.704577915681639,0.001525118936514079,4.067178074708065,75.41292803925782,19.115808987748487,11.071578677751395,0.012257985441763933,99.33807564922608,38.5081332277891,1.1873898675634604,0.00014098946975923723,33.722219942820956,45.99864676456055,4,5,3,4
173,113,205,512,12,32,40,1269,649728,7147008,1988248,2680,7.642845336254781,3.060123620961387,0.0013479203801537837,3.5946260225082587,72.18069435489649,21.457581841862858,8.45514204180174,0.007148942694704331,114.362563443603,37.44747225234041,1.3416103109518611,0.00017999182264523498,33.793626482904976,44.411329887121994,3,5,3,5
174,113,230,512,12,32,40,1269,649728,7147008,2242808,2680,7.684270394353651,3.451918341213554,0.001194930640518493,3.186633898220445,68.61892417078587,23.39233635489732,6.766797532247482,0.00457895488424306,120.33889136160724,37.95894134653463,1.2648905054412716,0.00015999479907554757,33.29527577044358,46.075620027226506,3,4,3,5
175,113,256,512,12,32,40,1269,649728,7147008,2503032,2680,7.704861111111111,3.8524305555555554,0.0010707014532774651,2.855340243352862,64.97790404040404,24.737509526815426,5.7959485770582635,0.0033593019907903706,125.32965782890096,37.47397376937808,1.3375231621816894,0.0001788968209372506,32.96760511796149,45.16520052162476,3,4,3,5
176,113,282,512,12,32,40,1269,649728,7147008,2807256,2680,7.844608755428131,4.32066341607565,0.0009546689008768705,2.5459053253426123,60.72124167203955,26.103395110501953,4.9525656879131805,0.002452790689309495,153.543677496491,37.195517890755184,1.3810967569241699,0.00019074282519864597,33.18291093469947,46.00134757026677,3,4,3,5
177,113,307,512,12,32,40,1269,649728,7147008,3042360,2680,7.80927299189133,4.68251329787234,0.000880895094597615,2.3491657791977283,57.431697292069636,27.06430888304996,4.433886337991226,0.0019659348058225254,159.20113825285807,37.349937328294324,1.3567603197607232,0.00018407985652772198,33.56540452216228,43.93549772173902,3,4,3,5
178,113,333,512,12,32,40,1269,649728,7147008,3317624,2680,7.850933675992778,5.10617366036249,0.000807807032985052,2.1542549728359814,53.58023945125009,28.005431827627795,3.9785828718038587,0.001582912166781104,176.82620853628032,37.33709796935818,1.3587673466465302,0.00018462487023128518,33.361512817040634,44.14531104008876,3,4,3,5
179,113,358,512,12,32,40,1269,649728,7147008,3556216,2680,7.827867805996892,5.4733919424743895,0.0007536100169393535,2.0097226940095876,50.241891432051005,28.683585240489624,3.679770538503784,0.001354071121604043,183.7764109969139,37.286697522874505,1.3666746026339855,0.00018677994694847627,33.584455521138935,45.22132412683975,3,4,3,5
180,113,384,512,12,32,40,1269,649728,7147008,3830392,2680,7.860503677436301,5.895377758077226,0.000699667292538205,1.8658685586227206,46.40565674475249,29.532111503612153,3.337293670843819,0.001113752904545421,192.29608824453317,37.93824186711034,1.2679084804482372,0.00016075919147925583,33.99235783523168,46.02932259074859,3,4,3,5
181,113,410,512,12,32,40,1269,649728,7147008,4072440,2680,7.827250187395491,6.267915189125295,0.0006580821325789944,1.7549695023131096,43.01895282613368,29.854698376164915,3.215622665805251,0.001034022912884047,215.7250875895843,37.02274385045334,1.4088436779833886,0.00019848405089937618,33.37644925864683,44.20930037737671,3,4,3,5
182,114,77,512,12,32,40,1269,649728,7147008,720952,2680,7.378260825069336,1.109621256895193,0.0037173071161464284,9.913292424460991,89.91253402822552,8.028306840220418,39.68118728136517,0.15745966240587772,70.67464334215038,39.541223736402756,1.0542383565418565,0.00011114185124040745,34.134284206219334,46.00629901225474,4,6,2,4
183,114,102,512,12,32,40,1269,649728,7147008,920568,2680,7.112038195893015,1.4168513593380614,0.002911246100233769,7.763693719529682,87.11953309692672,10.465948581883243,29.971092283303165,0.08982663726542746,76.02842639619485,39.66157664203302,1.0397314191243168,0.00010810414239142654,33.951690710763486,45.830596581904565,4,6,2,4
184,114,128,512,12,32,40,1269,649728,7147008,1170296,2680,7.204836485421592,1.801209121355398,0.0022900189353804506,6.107008825117748,83.62537162404183,13.164668228886146,21.966789510002112,0.04825398413767388,80.43933372502215,38.8814126728538,1.1374422771980026,0.00012937749339573775,34.385367638412724,46.22716657677095,4,6,2,4
185,114,154,512,12,32,40,1269,649728,7147008,1447384,2680,7.406302129706385,2.2276768124507487,0.0018516164335103883,4.937879650459035,79.7483926140841,16.156133520130176,15.566584160247046,0.02423185424180542,93.24266998283565,38.12209265812706,1.2413531970901883,0.0001540957759926032,34.273042125672056,45.349738712224394,3,6,2,4
186,114,179,512,12,32,40,1269,649728,7147008,1664120,2680,7.326051833361949,2.561256402679275,0.0016104607840780713,4.294767204288152,76.71585088473387,18.15697062015072,12.363785703120502,0.015286319691268691,99.26689762086608,37.794161439599456,1.2891157901144594,0.00016618195203224267,33.3078896324985,44.92866330078392,3,5,3,5
187,114,205,512,12,32,40,1269,649728,7147008,1863320,2680,7.162620846066616,2.8678462371946414,0.0014382929394843613,3.835631024193375,73.9286705709578,19.910592020535283,10.103466340833235,0.010208003210035012,114.36551771475933,38.01149304120664,1.2572607218255503,0.00015807045226453036,33.26942609734236,43.79372829113754,3,5,3,5
188,114,230,512,12,32,40,1269,649728,7147008,2104760,2680,7.211292698804262,3.2394478920409773,0.001273304319732416,3.395640358045573,70.55047370871839,21.017594597081942,8.894474004200688,0.007911166781140181,120.3196676010266,38.137124782131664,1.2392067229484567,0.0001535633302200653,34.503470313402936,42.8165785120582,3,5,3,5
189,114,256,512,12,32,40,1269,649728,7147008,2338328,2680,7.197867415287628,3.598933707643814,0.0011461180809535702,3.0564608557909754,67.28242083960168,21.950450743460067,7.988724840958801,0.006381972458455223,125.36817625258118,37.40674347846182,1.3479159924944606,0.0001816877522822327,34.2383072980374,43.62353264729839,3,5,3,4
190,114,282,512,12,32,40,1269,649728,7147008,2664792,2680,7.446506714953976,4.101396276595745,0.0010057070120294566,2.6820134554591877,62.71457930367505,22.73739757339019,7.296760997292055,0.005324272105160255,153.62962961755693,38.56473483765329,1.1796773965746976,0.00013916387599892562,34.18760324041344,45.02604620827453,3,5,3,5
191,114,307,512,12,32,40,1269,649728,7147008,2882136,2680,7.3980024795743144,4.435911643026005,0.0009298659050093402,2.47976084404067,59.67353051794541,23.151648677716096,6.9569289197853035,0.004839885999494511,159.16399165824987,37.234448736649775,1.3749204235267483,0.00018904061710309724,33.61911990182364,43.55031416897119,2,5,3,5
192,114,333,512,12,32,40,1269,649728,7147008,3160152,2680,7.478286797435733,4.863807624113475,0.0008480604730405373,2.2616026064569046,55.78356705351386,23.81444482212632,6.445813844315781,0.004154851611557299,176.87381371785887,38.69555154546732,1.1620435989063636,0.00013503453257592533,33.57470567303905,45.42400849504372,2,4,3,5
193,114,358,512,12,32,40,1269,649728,7147008,3378776,2680,7.437290612852244,5.20029304570528,0.0007931866451046178,2.1152654097223373,52.72460867540655,24.1622376884162,6.192815131155625,0.003835095924867007,183.69368728832342,37.95438956620942,1.2655535362659451,0.0001601625753155239,33.84674107985647,44.57312298660866,2,4,3,5
194,114,384,512,12,32,40,1269,649728,7147008,3579992,2680,7.346647622800105,5.509985717100079,0.000748605024815698,1.9963754108947729,49.909220753635644,24.611072179269954,5.88093515869152,0.0034585398340734063,192.20043052406982,38.11470057243705,1.2424100945838623,0.00015435828431238817,33.7872817098753,43.140709936333295,2,4,3,5
195,114,410,512,12,32,40,1269,649728,7147008,3789592,2680,7.2836149070710565,5.832582249802995,0.0007072001418622374,1.8859571162278155,46.97652500179096,24.766820587042524,5.776422761883831,0.0033367059924009623,215.49921186477877,36.63539173045351,1.4730938401308513,0.0002170005461831458,33.392089710472405,43.45809556799423,2,4,3,5
196,115,77,512,12,32,40,1269,649728,7147008,716760,2680,7.335359675785208,1.1031693262411348,0.0037390479379429656,9.971270718232045,89.97118794326241,5.428625690178812,53.52648384221425,0.2865084472510823,70.69059031503275,40.73103553066554,0.919280871721265,8.450773211126089e-05,34.93128867357302,49.4565815758528,6,6,2,4
197,115,102,512,12,32,40,1269,649728,7147008,896600,2680,6.926868462120861,1.3799620764381402,0.002989069819317421,7.971233548962748,87.45489021419873,8.96610187749828,35.620081279835595,0.12687901903820945,76.03929905151017,38.743128461091985,1.1556959116787768,0.0001335633040271039,33.706022301206566,45.307201361993414,6,6,2,4
198,115,128,512,12,32,40,1269,649728,7147008,1088376,2680,6.700502364066194,1.6751255910165486,0.0024623843230648233,6.566671811947342,84.7715855362132,14.089184212936495,19.74880353351156,0.03900152410052386,80.43827005545609,38.87446483794996,1.138352480186131,0.0001295846369145916,33.63335105549656,45.22419339484424,5,6,2,4
199,115,154,512,12,32,40,1269,649728,7147008,1277112,2680,6.535015811611556,1.9656102245862883,0.002098484706118179,5.596226486009058,82.13081614012465,18.33375041749025,12.114694841777004,0.014676583110937837,93.22056340868585,38.87702993749385,1.1380163538445145,0.00012950812216175632,33.8903237845273,43.70262954837425,5,6,2,4
200,115,179,512,12,32,40,1269,649728,7147008,1546808,2680,6.80960242305779,2.3807008471237197,0.001732600296869424,4.62048812780901,78.357265026148,20.976199498453962,8.936964340979747,0.007986933163194357,99.32674117735587,38.64321719696151,1.1690662962736251,0.00013667160050829312,33.06122458190448,45.27779023770832,5,6,2,4
201,115,205,512,12,32,40,1269,649728,7147008,1839000,2680,7.069134521132446,2.8304151891252953,0.0014573137574768896,3.8863556280587277,74.26895282613367,23.20701990308017,6.912720616353452,0.0047785706319758035,114.27961946744472,39.180834658988246,1.0989002370050747,0.00012075817308898092,34.085273456102534,43.790552800941796,5,6,2,4
202,115,230,512,12,32,40,1269,649728,7147008,2028920,2680,6.951450988453764,3.122722123719464,0.0013208997890503322,3.522567671470536,71.61161705709578,25.06949035142556,5.578603338929063,0.0031120815213110486,120.34918786282651,39.143485506346636,1.1036356599779042,0.00012180116699748644,34.08695101042682,44.68877989079211,5,6,2,4
203,115,256,512,12,32,40,1269,649728,7147008,2235000,2680,6.879802009456265,3.4399010047281324,0.0011991051454138702,3.19776644295302,68.7281726842897,26.444885255836308,4.761631002736512,0.002267312980622152,125.31118189077824,38.597744446875716,1.1752026921301766,0.00013811013675900147,34.36932913142898,43.13419916539979,4,6,2,5
204,115,282,512,12,32,40,1269,649728,7147008,2442616,2680,6.825657104214521,3.759443951930654,0.0010971843302426578,2.9259646215369095,65.82323680063041,26.79651560685775,4.57271589878708,0.0020909730691020126,153.58751115691848,37.327864769119834,1.3602124998806298,0.0001850178044831512,33.38085707184375,42.796829646154215,4,5,3,5
205,115,307,512,12,32,40,1269,649728,7147008,2614200,2680,6.710251730696668,4.023529846335697,0.001025170224160355,2.733917833371586,63.42245594240275,28.326411470440583,3.8342411733624364,0.0014701405375507751,159.2643096621614,38.10639253658273,1.2435990258386094,0.0001546538537066738,34.43695405231939,41.19365785650279,4,5,2,5
206,115,333,512,12,32,40,1269,649728,7147008,2868024,2680,6.786985567127411,4.414191784869977,0.0009344412738526596,2.4919624103563986,59.87098377390931,28.68551721592498,3.6789521495993203,0.0013534688919041458,176.80857404624112,37.48883553801394,1.3352365842412064,0.0001782856735896124,34.91866376131251,44.053969430708946,4,5,3,5
207,115,358,512,12,32,40,1269,649728,7147008,3145592,2680,6.924010900238168,4.841398246650906,0.0008519858900963635,2.272070885226056,55.987288666809945,29.163256053713475,3.4820675933084564,0.0012124794724368943,183.66996045503765,37.41935556425331,1.3459602117255558,0.00018116088915483028,33.8320441382739,41.71885340248808,4,5,3,5
208,115,384,512,12,32,40,1269,649728,7147008,3500248,2680,7.18300170738114,5.387251280535855,0.000765660033231931,2.0418576055182376,51.02498835876496,28.881524331060817,3.5968620645015124,0.0012937416711050083,192.24598195543513,36.52126458878567,1.4925770877232494,0.0002227786362796417,33.47801952843991,42.16831497256506,4,5,3,5
209,115,410,512,12,32,40,1269,649728,7147008,3778904,2680,7.263072517249995,5.816132289204098,0.0007092003395693566,1.891291231531682,47.12607009814457,31.415743903940626,2.6866605900005625,0.0007218145125862169,215.68288468988612,39.30799301405212,1.0829299110341115,0.00011727371922123487,34.27891201748927,44.1716460730024,4,5,3,5
210,116,77,512,12,32,40,1269,649728,7147008,728888,2680,7.4594782679889065,1.1218355988967692,0.0036768337522362833,9.805358299217438,89.80149455548391,6.747781252344539,45.98444374635305,0.21145690666615083,70.74257732089609,38.14102868162922,1.238649882866514,0.00015342535323252285,34.07286116091865,56.450402853233136,6,6,2,5
211,116,102,512,12,32,40,1269,649728,7147008,939800,2680,7.260618983606051,1.446451438140268,0.002851670568206001,7.604818046392849,86.85044147145211,9.486648217880902,33.548073752587044,0.11254732525090198,75.98935995274223,37.726507630954444,1.2991958314906484,0.00016879098085626772,34.10685486311163,50.93544207658546,6,6,2,5
212,116,128,512,12,32,40,1269,649728,7147008,1132568,2680,6.9725669818754925,1.7431417454688731,0.00236630383341221,6.310444935756617,84.15325685937388,14.920946897092406,17.94537983611737,0.032203665746252795,80.4622413602192,37.36483726531287,1.3544349029157001,0.0001834493906236262,34.09201331109037,49.00265141804349,6,6,2,5
213,116,154,512,12,32,40,1269,649728,7147008,1352280,2680,6.919652451567345,2.0813017139479904,0.0019818380808708258,5.285153962197178,81.07907532774554,18.76173413065823,11.532229948220376,0.013299232757863091,93.19251356390305,38.731623993338786,1.157227646003281,0.00013391758246742954,33.880704775944196,48.49530381933699,6,6,2,6
214,116,179,512,12,32,40,1269,649728,7147008,1541752,2680,6.787344101500763,2.3729191292356187,0.0017382821621116755,4.6356404921154635,78.42800791603983,22.058820771010065,7.889672235004171,0.00622469279757957,99.28627359238453,39.67849005021481,1.0377087948064105,0.00010768395428185728,35.15670293380118,43.69311031554237,6,6,3,6
215,116,205,512,12,32,40,1269,649728,7147008,1744920,2680,6.707490053623941,2.685616134751773,0.0015358870320702383,4.095894367650093,75.58530786589297,24.02934728100281,6.288291069959438,0.003954260458053162,114.37057090760209,39.11445708630017,1.1073302030078482,0.0001226180178493402,33.631276819378044,43.121981855352054,6,6,3,6
216,116,230,512,12,32,40,1269,649728,7147008,1911800,2680,6.550176448418816,2.94246207643814,0.0014018202740872477,3.7383659378596086,73.25034475965327,25.4806405627685,5.320690190523962,0.0028309744103537913,120.36026429361664,38.59271460413778,1.1758834279908563,0.00013827018362235274,33.51922345144832,42.8791108559728,6,6,3,6
217,116,256,512,12,32,40,1269,649728,7147008,2109240,2680,6.492686170212766,3.246343085106383,0.0012705998369080807,3.3884280593958014,70.48779013539652,26.934678162648254,4.5005551907700125,0.0020254997025166907,125.30514886463061,39.08170765408203,1.1115131812610102,0.0001235461552116971,33.68530532655288,46.337817578138306,6,6,3,6
218,116,282,512,12,32,40,1269,649728,7147008,2282712,2680,6.378820649531378,3.5133348108747047,0.0011740421043040033,3.130928474551323,68.06059262841178,27.964146588113096,3.9975386426506985,0.0015980315199485586,153.50319223152474,38.76909818080974,1.1522456864125457,0.00013276701218563187,35.15888216141375,44.67181249862986,6,6,3,6
219,116,307,512,12,32,40,1269,649728,7147008,2470264,2680,6.3407900242053685,3.801997143420016,0.001084904285533854,2.8932162716211707,65.43638960527258,29.084764700622735,3.5136764267273337,0.0012345922031739363,159.27994528971612,38.78892201873116,1.149618910527715,0.00013216236394429304,33.486385586364435,45.415405450216454,5,6,2,6
220,116,333,512,12,32,40,1269,649728,7147008,2864952,2680,6.779715886098865,4.40946365248227,0.0009354432465186153,2.4946344650800434,59.91396679561573,29.79174422489209,3.2390137284415212,0.0010491209933032647,176.84305317513645,39.1137131448109,1.1074250492693363,0.00012263902397491918,34.23045112561896,44.28052165927285,5,6,3,6
221,116,358,512,12,32,40,1269,649728,7147008,3184568,2680,7.009804051049742,4.901386426319937,0.0008415584154585488,2.2442629581155122,55.44194157890966,31.3794029289255,2.6979248823655975,0.0007278798670887423,183.6114522232674,40.35367502380106,0.9600995116933849,9.217910723538763e-05,33.79509068282053,45.85643268955549,5,6,3,6
222,116,384,512,12,32,40,1269,649728,7147008,3408280,2680,6.994270422905175,5.245702817178881,0.000786320372739329,2.096954475571256,52.31179257110108,31.265823367159093,2.73343550755927,0.0007471669673985803,192.20482984557748,39.57858667682391,1.0497132186793652,0.00011018978414701927,34.33339834419192,42.83452131363795,5,6,3,6
223,116,410,512,12,32,40,1269,649728,7147008,3637400,2680,6.991101116684925,5.59834269109535,0.000736790014845769,1.9648672128443394,49.10597553549681,30.524427607850786,2.9769985259501146,0.0008862520223509154,215.6449237514753,37.936300604085304,1.268191884800094,0.00016083106566728146,34.448673283068636,43.08877596308181,5,6,3,7
224,117,77,512,12,32,40,1269,649728,7147008,670616,2680,6.863119543970607,1.0321488376674548,0.0039963257661612605,10.65737769453756,90.61682874847769,12.95028226941563,22.5157224515997,0.05069577575174709,70.7045997530222,37.73211758825993,1.29835699053532,0.0001685730874871933,34.38840433854818,40.071261192702764,6,6,2,4
225,117,102,512,12,32,40,1269,649728,7147008,848824,2680,6.557765107619092,1.306429767533491,0.0031573094068970717,8.41989387670471,88.12336574969554,16.65799884759166,14.692647442983326,0.02158738888838044,76.01145629235543,37.52292082525609,1.3300070980466028,0.00017689188808543455,34.694255754984304,39.73184653911922,6,6,2,4
226,117,128,512,12,32,40,1269,649728,7147008,1037688,2680,6.388445626477542,1.5971114066193854,0.0025826645388594646,6.88743437333765,85.48080539436923,18.46981124605684,11.926401829582362,0.014223906060066554,80.36149628879502,35.85607565118491,1.6113735011362533,0.0002596524560164107,34.20111857625163,43.428250789872386,6,6,2,4
227,117,154,512,12,32,40,1269,649728,7147008,1215896,2680,6.221771923899584,1.8713923364854217,0.002204135880042372,5.877976405876819,82.98734239558708,20.578904721821047,9.355236348936137,0.008752044714445593,93.21158589120023,35.57054656273942,1.6652240396646176,0.0002772971102276948,34.019757339847935,44.597400825822845,6,6,2,4
228,117,179,512,12,32,40,1269,649728,7147008,1374168,2680,6.049579354702378,2.114989657210402,0.0019502710003434806,5.200971060307037,80.77282129808725,22.5683667062204,7.440149542488024,0.005535582521458476,99.16164502128959,35.193270669668266,1.7391476990755468,0.00030246347191997683,33.7752117428862,42.910254433589344,6,6,2,4
229,117,205,512,12,32,40,1269,649728,7147008,1599928,2680,6.150139345365085,2.4624581363278173,0.0016750753783920276,4.467081018645839,77.6140169424744,27.188841881705414,4.370769520963108,0.001910362620538008,114.36011133738793,40.272533718379286,0.9691105335711877,9.391752262786322e-05,38.17051152107757,42.16369350632895,6,6,3,5
230,117,230,512,12,32,40,1269,649728,7147008,1725688,2680,5.912522698461644,2.6560160559495665,0.0015530037874749085,4.141541228773684,75.85439949136757,25.467195309115063,5.328932688316059,0.0028397523596603424,120.33182281185873,35.18763859359405,1.7402757572094967,0.00030285597111310875,33.58050754820884,41.54776894047774,6,6,2,4
231,117,256,512,12,32,40,1269,649728,7147008,1886744,2680,5.8077964933018125,2.9038982466509062,0.0014204364768087244,3.788011516135734,73.6009250304463,25.368291364675763,5.389958629297776,0.002905165402554156,125.33515911619179,35.043348675906685,1.7694266587494538,0.0003130870700693256,33.49873593614995,44.931142204340354,5,6,2,4
232,117,282,512,12,32,40,1269,649728,7147008,2166552,2680,6.054222624616468,3.334552304964539,0.0012369885421628468,3.2987936592336577,69.685888136686,28.793913451427002,3.633325671768744,0.0013201055437133792,153.4768935739994,37.99654480648267,1.2594263042053824,0.00015861546157244284,36.6047525200537,39.884943681325595,5,6,3,5
233,117,307,512,12,32,40,1269,649728,7147008,2467320,2680,6.333233226295809,3.7974660165484635,0.0010861987905906004,2.896668449978114,65.47758166774125,25.909181192509106,5.064550901345874,0.0025649675832323305,159.13469257345423,34.994809101782046,1.7793424705485512,0.00031660596274978215,33.760598832603606,36.95366325531678,5,6,3,5
234,117,333,512,12,32,40,1269,649728,7147008,2778616,2680,6.575407558859095,4.276583431836092,0.0009645089497793146,2.5721467090090893,61.12196880149008,30.810674033132457,2.8804895124305894,0.0008297219831222613,176.82666095532477,39.63449624440945,1.0429780961183444,0.00010878033089826463,36.00684411743845,42.2879605721087,5,6,3,5
235,117,358,512,12,32,40,1269,649728,7147008,2973560,2680,6.545337682862941,4.576622832939322,0.0009012765842962644,2.4035190142455507,58.3943378823698,29.006696030114032,3.5453996581987703,0.0012569858736355957,183.62057170760818,36.817843702054844,1.442473405393636,0.00020807295252679128,33.76261824305714,45.277695127887114,5,5,2,5
236,117,384,512,12,32,40,1269,649728,7147008,3202968,2680,6.572941292356186,4.92970596926714,0.0008367239385469977,2.231370403950336,55.18449118848055,34.00722954693366,1.9936022845418886,0.00039744500689306377,192.1694860183634,41.95691859738295,0.7982778337548168,6.37247499864283e-05,38.734450994362014,44.082660422521634,5,5,3,5
237,117,410,512,12,32,40,1269,649728,7147008,3355704,2680,6.449679986161564,5.16478280141844,0.0007986401661171545,2.129808827000236,53.04742907801418,31.380516880359046,2.697578900007123,0.0007276931921763641,215.53809684398584,38.8189674984531,1.145649117960914,0.00013125119014846203,36.26864836767541,41.49134093295146,5,5,3,5
238,118,77,512,12,32,40,1269,649728,7147008,701112,2680,7.17521721777041,1.079085401891253,0.0038224991156905032,10.19381782083319,90.19013271007952,8.06464819918839,39.51550987112457,0.15614755203749436,70.72661144426093,37.322147612390154,1.3611081027770344,0.0001852615267445298,34.483632903011824,50.886579401421265,6,6,2,4
239,118,102,512,12,32,40,1269,649728,7147008,894360,2680,6.909562879525333,1.3765144799054374,0.0029965561966098665,7.9911981752314505,87.48623200085966,11.20934913502843,27.51265759511633,0.07569463279461122,76.02828855928965,36.656380218019414,1.469538569671175,0.00021595436077512028,34.02128506827938,48.577285611058066,6,6,2,4
240,118,128,512,12,32,40,1269,649728,7147008,1095480,2680,6.744237588652482,1.6860593971631206,0.0024464161828604814,6.524088070982583,84.67218729851709,16.18467958613531,15.515508754371934,0.02407310119069921,80.52447809232399,39.21323982146109,1.0948081177080995,0.00011986048145995522,33.920322692107156,45.1692993954902,6,6,2,4
241,118,154,512,12,32,40,1269,649728,7147008,1273080,2680,6.514383961192472,1.9594045508274232,0.0021051308637320514,5.61395041945518,82.18723135611434,19.1191369096137,11.067337512745203,0.012248595962101717,93.23442383180372,36.90837571776798,1.4275167542693523,0.00020378040837197068,33.904059215928285,45.00475906298692,6,6,2,4
242,118,179,512,12,32,40,1269,649728,7147008,1475480,2680,6.495591038560253,2.270919523246651,0.0018163580665275028,4.843852847886789,79.35527706139408,21.731849582476258,8.192331562353052,0.006711429642752601,99.29173044371419,38.2909942795653,1.2174476228292062,0.00014821787143324853,35.153478661558964,41.70786152298266,6,6,3,5
243,118,205,512,12,32,40,1269,649728,7147008,1640536,2680,6.306236906340694,2.5249581363278173,0.0016336124291085352,4.356507873036617,77.04583512429257,22.839869064185272,7.211183496303594,0.005200116741736134,114.3454179216642,37.35826916949597,1.35545948680399,0.00018372704203669358,33.53469611333303,42.897456738511586,6,6,2,4
244,118,230,512,12,32,40,1269,649728,7147008,1809272,2680,6.198896769109535,2.784660657998424,0.0014812587604296093,3.950212018977799,74.68490310910524,24.759570391889394,5.781246410101723,0.0033422810054314057,120.35753547470085,38.05655704197495,1.2507547126165708,0.00015643873511325608,33.42930455381515,41.01874767257947,6,6,3,4
245,118,256,512,12,32,40,1269,649728,7147008,2005656,2680,6.173832742316785,3.0869163711583925,0.001336221166541022,3.563426629491797,71.93712389856007,25.943925288744865,5.04433284791995,0.0025445293880604195,125.35148215829395,38.64324367027225,1.1690627331373813,0.00013667076740106438,33.406072664432635,42.519359625358966,5,6,3,4
246,118,282,512,12,32,40,1269,649728,7147008,2239736,2680,6.258728322407212,3.4471902088258473,0.0011965695957023507,3.1910046541199497,68.6619071924923,26.841646905845128,4.549017993877059,0.002069356470861726,153.58973197895102,38.74918599403866,1.154890211193198,0.00013337713999098694,33.5260384573531,44.602898589752556,5,6,3,4
247,118,307,512,12,32,40,1269,649728,7147008,2585848,2680,6.6374764812633,3.9798931245074862,0.0010364104928054548,2.763893314688257,63.81915341356831,28.22781984765372,3.8780107409936324,0.0015038967307261979,159.2824577339925,40.344666493960275,0.9610957909683804,9.237051194171368e-05,34.67547132295566,45.27557145146772,5,6,3,4
248,118,333,512,12,32,40,1269,649728,7147008,2887864,2680,6.833935590436773,4.444727639873917,0.0009280215411806096,2.4748423055933384,59.59338509205531,28.02204956587853,3.9709783722550607,0.0015768669232917453,176.8905661397148,38.48915892344559,1.1899865529741411,0.00014160679962592782,34.33071792204659,41.89803672372188,5,6,3,4
249,118,358,512,12,32,40,1269,649728,7147008,3110296,2680,6.846318087967916,4.787073975571316,0.0008616543248616852,2.2978546093362175,56.4811456766244,28.2956254129056,3.847855277708545,0.0014805990238189503,183.706850763876,37.92290363695666,1.2701494314562585,0.00016132795782286565,34.146042136911696,41.597679097617444,5,5,3,4
250,118,384,512,12,32,40,1269,649728,7147008,3299096,2680,6.770209482532177,5.077657111899133,0.0008123437450744083,2.1663534495510284,53.839480800916974,28.946742877918723,3.5699559397787946,0.0012744585411961899,192.14023927040398,38.372540260659385,1.2060713110282082,0.00014546080072853012,34.11008554157803,40.90060421140545,5,5,3,5
251,118,410,512,12,32,40,1269,649728,7147008,3510616,2680,6.747421630244672,5.403208727344365,0.0007633987881329089,2.0358273305881363,50.87992066050577,28.44682084297116,3.7814551852146527,0.0014299403317786785,215.64048299379647,36.63123657047512,1.473798708040386,0.0002172082631821511,33.64162440653024,40.026557904068056,5,5,3,5
252,119,77,512,12,32,40,1269,649728,7147008,697976,2680,7.143123228229611,1.0742587667454688,0.003839673570437952,10.239618554219629,90.23401121140483,7.572573304297624,41.818777689670654,0.17488101674580964,70.73961524944752,36.84124627771612,1.438592149893964,0.0002069547373736537,33.942328339935884,48.493293906220586,6,6,2,4
253,119,102,512,12,32,40,1269,649728,7147008,891064,2680,6.884098950849055,1.3714415878644601,0.0030076403041756823,8.020757207114192,87.53234920123218,10.247709504546304,30.73367714809041,0.09445589110430545,75.97740067122504,37.06077775279677,1.4026880993007955,0.00019675339039200784,33.979878448233265,47.91013506145694,6,6,2,4
254,119,128,512,12,32,40,1269,649728,7147008,1098136,2680,6.760589046493302,1.6901472616233255,0.00244049917314431,6.508308624796928,84.6350248943334,16.27572889399787,15.353717844219444,0.02357366516399026,80.42281004902907,40.7018911174446,0.922370584054442,8.507674943289326e-05,34.15449575550988,46.63088048287951,6,6,2,4
255,119,154,512,12,32,40,1269,649728,7147008,1303288,2680,6.66895909449101,2.005897852639874,0.0020563375094376684,5.4838285935265265,81.76456497600114,20.49817349722592,9.442594179659817,0.008916258484174547,93.25611062347889,38.19333950395974,1.2312125247801526,0.0001515884281175518,34.487065433405306,42.62935261283532,6,6,3,4
256,119,179,512,12,32,40,1269,649728,7147008,1479800,2680,6.51460922470075,2.2775684594168637,0.0018110555480470333,4.8297121232599,79.29483218711943,23.235094024410397,6.890413717071551,0.0047477801192407805,99.25719240680337,40.2894505747243,0.9672249064515106,9.355240196601333e-05,33.814971970974504,44.53052264980313,6,6,2,4
257,119,205,512,12,32,40,1269,649728,7147008,1629176,2680,6.262568951930654,2.5074738967691097,0.0016450033636635944,4.386885149302469,77.20478275664446,25.021589347746172,5.609453246292773,0.0031465965722344523,114.30051043955609,39.1477350925408,1.1030958364304568,0.0001216820424350209,33.639864445081194,42.69132010967626,6,6,2,4
258,119,230,512,12,32,40,1269,649728,7147008,1834840,2680,6.286497413231919,2.824012509850276,0.0014606178195373984,3.8951668810359488,74.32715900136112,26.367527940225695,4.804227921852293,0.002308060592510521,120.35859826160595,38.55364015492952,1.1811851878810076,0.00013951984480694912,34.2785345807484,40.75426771950438,6,6,3,4
259,119,256,512,12,32,40,1269,649728,7147008,1996376,2680,6.1452669424743895,3.0726334712371948,0.0013424324876676538,3.5799909435897845,72.06696844329824,27.702975575894005,4.1195636862444465,0.0016970804965023934,125.32013126905076,38.50257407365557,1.1881500655822126,0.0001411700578343016,33.86512987782064,41.575642103120344,5,6,2,4
260,119,282,512,12,32,40,1269,649728,7147008,2220184,2680,6.204092125927044,3.4170976162332547,0.0012071071586859468,3.2191061641737804,68.93547621606132,28.54608960838686,3.738483942253825,0.0013976262186489704,153.5521668549627,38.02599914619662,1.2551627519147515,0.0001575433533794212,34.29254850402332,40.51420959851802,5,6,3,4
261,119,307,512,12,32,40,1269,649728,7147008,2582680,2680,6.629344709599752,3.9750172379826636,0.0010376817879102329,2.767283596883857,63.863479654703056,29.219920912831952,3.459425277038436,0.0011967623247412457,159.0826314680744,38.37954293044516,1.205099353534497,0.00014522644518892626,34.102549021391376,42.89303291665918,5,6,3,4
262,119,333,512,12,32,40,1269,649728,7147008,2930872,2680,6.935711124836421,4.5109214933018125,0.0009144036314107201,2.4385261451199507,58.991622788165344,30.784278793480244,2.8892562427880133,0.0008347801636489508,176.9243257206399,39.92547198497628,1.0086172715753678,0.00010173088005201393,34.47385787783881,44.81399849901919,5,6,3,4
263,119,358,512,12,32,40,1269,649728,7147008,3130424,2680,6.890623417902629,4.818053092986603,0.0008561140599484288,2.2830798639417536,56.19951733648542,29.8885683552177,3.203108000825184,0.0010259900864950306,183.68395145167597,38.02274553510716,1.255633006152756,0.00015766142461402075,34.27479957623741,41.079255061047036,5,5,3,5
264,119,384,512,12,32,40,1269,649728,7147008,3290680,2680,6.752938665615971,5.064703999211978,0.0008144213354078793,2.1718939550488043,53.9572363708002,31.451680465595793,2.6755678989894727,0.0007158663582102941,192.19242659420706,39.31279933947857,1.082330838977836,0.00011714400450024664,35.18628634667988,42.97186771869679,5,5,3,4
265,119,410,512,12,32,40,1269,649728,7147008,3506296,2680,6.73911856849065,5.396559791174153,0.0007643393484178175,2.038335611140645,50.940365534780426,28.8464203161215,3.611428193881362,0.0013042413599561199,215.51638881186955,35.57583317576794,1.664210819724271,0.000276959765248733,33.715760570595585,40.06211400777556,5,5,3,5
266,121,77,512,12,32,40,1269,649728,7147008,716952,2680,7.337324613920359,1.1034648345153664,0.0037380466195784377,9.968600408395542,89.96850150440576,13.933673398682128,20.10556722466056,0.0404233833425345,70.78219773387536,37.39975118695015,1.3490015250785243,0.0001819805114664185,34.059502204223655,53.12741358257399,6,6,2,5
267,121,102,512,12,32,40,1269,649728,7147008,900568,2680,6.957524065575797,1.3860692474389282,0.002975899654440309,7.936111431896315,87.39937047782793,17.422962019785565,13.454014735591624,0.018101051250551656,76.06490168860182,37.33072151584371,1.3597652061862275,0.00018489614159546738,34.01762317624783,50.53741205903901,6,6,2,5
268,121,128,512,12,32,40,1269,649728,7147008,1112344,2680,6.848059495665878,1.7120148739164696,0.0024093266111922212,6.425177822687945,84.43622841894118,20.50639665098159,9.433658864684098,0.008899391957523288,80.49245476652868,37.530359789161025,1.3288685112523584,0.00017658915201980595,33.90564203394829,47.11076628887669,6,6,2,5
269,121,154,512,12,32,40,1269,649728,7147008,1302168,2680,6.663228024930152,2.0041740543735225,0.002058106173704161,5.48854525683322,81.78023586933162,24.008714709853134,6.30324611057282,0.003973091153045138,93.22518131928518,37.61789634948203,1.3155434073280772,0.0001730654456564367,33.57776944752665,44.46048948135748,6,6,2,5
270,121,179,512,12,32,40,1269,649728,7147008,1495416,2680,6.583356445712323,2.3016031323877066,0.0017921434570714772,4.779277471954292,79.07633516011175,26.348498995724388,4.814764505177131,0.0023181957240313578,99.2271181885153,39.503036483174895,1.0588834874577921,0.0001121234240010776,33.94693693031853,46.46168726863703,6,6,2,6
271,121,205,512,12,32,40,1269,649728,7147008,1655416,2680,6.363435776201734,2.5478600275807723,0.001618928414368352,4.317348630193257,76.83763611290208,26.56835593118723,4.694422821392771,0.002203760562601327,114.39787685056217,37.098720229880634,1.396574115703379,0.0001950419260652675,33.62604157172454,42.8728214039503,6,6,2,5
272,121,230,512,12,32,40,1269,649728,7147008,1823640,2680,6.248124164867921,2.8067745271867612,0.0014695882959356013,3.919089293939593,74.48386793466581,27.619838085886638,4.159183635772646,0.0017298808516078967,120.42079309211113,36.623910960937536,1.4750422223413993,0.00021757495576898541,33.48663844564308,42.28714746641279,6,6,2,5
273,121,256,512,12,32,40,1269,649728,7147008,2010936,2680,6.190085697399527,3.0950428486997636,0.001332712726809804,3.554070343362494,71.86324683000215,29.059996641637255,3.5237100728523054,0.00124165326775208,125.27847689040937,37.360891113845845,1.3550503861655472,0.00018361615490473983,33.84470923439764,39.974862341048706,6,6,3,6
274,121,282,512,12,32,40,1269,649728,7147008,2300792,2680,6.429343482610421,3.541161840031521,0.0011648162893473204,3.1063251263043337,67.80761963607708,30.14896183236725,3.1085074201167027,0.0009662818380920599,153.57554479502141,38.362144467896506,1.2075156735608497,0.00014580941018951124,33.373657750139884,45.20962396413912,5,6,2,6
275,121,307,512,12,32,40,1269,649728,7147008,2693592,2680,6.914038856931643,4.145722517730497,0.0009949539499671813,2.6533372537488975,62.3116134751773,30.18669291818829,3.095033499969403,0.0009579232365932854,159.18740549124777,38.48473984020296,1.1905921314228336,0.0001417509623405966,33.616622063369775,44.29666954942295,5,6,3,6
276,121,333,512,12,32,40,1269,649728,7147008,2915224,2680,6.898681187097263,4.48683756895193,0.0009193118607695326,2.45161538187117,59.21056755498245,31.04297192715615,2.8044739068759084,0.0007865073894347821,176.75939525244758,38.93073708578985,1.1310014083261477,0.0001279164185635729,33.92988891951668,43.55074489354442,5,6,3,6
277,121,358,512,12,32,40,1269,649728,7147008,3119704,2680,6.8670267795431235,4.801553881008668,0.0008590558591456113,2.2909250364778195,56.34951017264847,32.51332332312704,2.367739033761956,0.0005606188132000002,183.69285667594522,39.45924454756815,1.064235575742929,0.00011325973606768832,33.88344525733387,45.76590811817651,5,6,3,6
278,121,384,512,12,32,40,1269,649728,7147008,3326616,2680,6.82668439716312,5.12001329787234,0.0008056234924620094,2.1484319200051947,53.4544245647969,30.13322358422225,3.114144932457515,0.0009697898660350817,192.1405425525736,36.91180909819204,1.426952593345144,0.0002036193703654432,33.59875128237711,42.37539278354533,5,6,3,7
279,121,410,512,12,32,40,1269,649728,7147008,3517304,2680,6.7602759999231194,5.4135022655634355,0.000761947218665205,2.03195629379775,50.786343040332405,28.60613671501699,3.7127282643322856,0.0013784351164771826,215.42289136257023,35.93704219126958,1.596422685004982,0.0002548565389198516,33.62956102508326,39.916696311513064,5,5,3,7
280,122,77,512,12,32,40,1269,649728,7147008,656440,2680,6.718041611658633,1.0103304767533492,0.004082627505941137,10.887526658948266,90.81517748406046,8.781844616587767,36.383775993960214,0.13237791555786754,70.7917883777991,38.04205083687162,1.2528453290515613,0.00015696214185263152,34.467602427909995,42.18432838228955,6,6,2,5
281,122,102,512,12,32,40,1269,649728,7147008,838168,2680,6.475439978986079,1.2900290583136327,0.0031974496759599506,8.526939706598199,88.2724631062397,10.487124407614168,29.898113044355846,0.0893897163613081,75.93814271246083,38.01045000592608,1.257411707629486,0.00015810842024836997,35.144449782222374,45.0265883796555,6,6,2,5
282,122,128,512,12,32,40,1269,649728,7147008,1045368,2680,6.43572695035461,1.6089317375886525,0.0025636904898562038,6.83683449273366,85.37334784010316,16.781214402228823,14.485693102413205,0.020983530465730153,80.4590532311704,40.384788885015965,0.956666476641308,9.152107475292943e-05,33.880672903482655,45.03136410739143,6,6,2,5
283,122,154,512,12,32,40,1269,649728,7147008,1242872,2680,6.359808827893934,1.9129112490149724,0.0021562960626677567,5.750397466513044,82.60989773622752,21.250606162021136,8.659038924323568,0.007497895509295066,93.26355065987445,40.52541708166579,0.9413023564877809,8.860501263294494e-05,34.09044214549261,44.14719214273362,6,6,2,5
284,122,179,512,12,32,40,1269,649728,7147008,1409176,2680,6.203697100166849,2.1688706658786447,0.0019018206384440268,5.071763924449465,80.28299394655778,23.63335429729898,6.5816121364495865,0.00433176183146605,99.31053384323604,39.88653558988033,1.0131487676427207,0.00010264704253759638,33.9296962582963,43.33300527132839,6,6,2,5
285,122,205,512,12,32,40,1269,649728,7147008,1587544,2680,6.102535124642027,2.443397852639874,0.0016881421869252128,4.50192750563134,77.78729224872842,25.458780344823786,5.334097905605558,0.0028452600466585603,114.27734924387187,39.34646223512534,1.078144292699688,0.00011623951158809106,33.72523433732973,42.67492789133329,6,6,2,5
286,122,230,512,12,32,40,1269,649728,7147008,1747960,2680,5.988830643779765,2.6902950157604413,0.001533215863063228,4.088770910089476,75.54277258399598,25.721905423508634,5.174932969994129,0.002677993124393226,120.35650237486698,37.793293773970454,1.289244571088889,0.00016621515640821732,33.45497549561167,41.76453344377532,6,6,2,5
287,122,256,512,12,32,40,1269,649728,7147008,1909784,2680,5.878718479117415,2.9393592395587076,0.0014033000590642712,3.7423122196017977,73.27855236764812,25.49669367421217,5.310865664224021,0.002820529410343365,125.31393702840433,35.69546970801458,1.6414456773832278,0.00026943439118000834,33.43509076578389,41.24159667861309,6,6,2,5
288,122,282,512,12,32,40,1269,649728,7147008,2145016,2680,5.9940423296391305,3.3014061268715524,0.0012494079298242997,3.3319136081036227,69.98721702844043,28.514379262236915,3.7521573005838795,0.0014078684408324906,153.55767044937238,38.47841782855651,1.191459017549006,0.0001419574590498843,33.241002181304616,45.1434994143215,5,6,2,5
289,122,307,512,12,32,40,1269,649728,7147008,2604408,2680,6.685117163736611,4.008458924349882,0.001029024638228726,2.744196761797691,63.559464324091984,30.433845486661856,3.0082070564799794,0.0009049309694655941,159.20602619927377,41.23310462464243,0.8676503948723241,7.528172077221e-05,33.97161804986414,44.51439366426188,5,6,3,5
290,122,333,512,12,32,40,1269,649728,7147008,2856312,2680,6.759269908206078,4.396165780141844,0.0009382728497447058,2.502180434070228,60.03485654416505,31.43568541677854,2.6804994914191504,0.0007185077523498322,176.95798453409225,41.476031057391424,0.8437202003883997,7.118637765434412e-05,34.89013304728416,44.2660449021783,5,5,3,5
291,122,358,512,12,32,40,1269,649728,7147008,3023096,2680,6.65437528340179,4.652863967691095,0.0008865084006594564,2.3641353102911715,57.701236657353675,32.15288876893976,2.468059136807269,0.0006091315902777842,183.70503797591664,41.42304283247942,0.8488830430525202,7.206024207821067e-05,33.858615884816125,43.74206443467767,5,5,3,5
292,122,384,512,12,32,40,1269,649728,7147008,3220440,2680,6.608796296296297,4.956597222222222,0.0008321844220044466,2.219264448336252,54.94002525252525,31.091989181712897,2.7886919364765235,0.0007776802716569183,192.2537661276292,39.64728882689443,1.0414431280992154,0.00010846037890650786,36.60952866293738,41.074829116824446,5,5,3,5
293,122,410,512,12,32,40,1269,649728,7147008,3424184,2680,6.581298891003095,5.270180752561072,0.000782668221100268,2.0872149393840984,52.08926588580844,33.139127737890696,2.2031476983959886,0.00048538597809475424,215.73542638146318,41.02265667989178,0.8889291869915725,7.90195099485498e-05,33.697472224031785,43.38682190836529,5,5,3,5
294,123,77,512,12,32,40,1269,649728,7147008,644056,2680,6.5913031019414,0.9912701930654059,0.004161128845938862,11.096873563789485,90.9884527903145,9.072067108055377,35.18816701373446,0.12382070977864695,70.70728647452779,38.35959848811148,1.2078696685150911,0.00014589491361187562,34.69335763141599,47.91235550279598,6,6,2,4
295,123,102,512,12,32,40,1269,649728,7147008,830168,2680,6.413634326859191,1.2777162135539795,0.003228262231259215,8.609110445114723,88.38439805860018,11.33574775814741,27.11518751178775,0.07352333937994103,76.05530593707226,38.620214399861794,1.172166431790837,0.00013739741438172627,34.453511603653325,44.276407839347456,6,6,2,4
296,123,128,512,12,32,40,1269,649728,7147008,1010616,2680,6.221778959810875,1.5554447399527187,0.0026518479818249466,7.0719323660025175,85.8595932731571,15.807573991974795,16.203965147365444,0.026256848649703395,80.39873191039078,35.51677763085897,1.675564376615539,0.000280751598018302,33.95633255451164,43.657279889576806,6,6,2,4
297,123,154,512,12,32,40,1269,649728,7147008,1160984,2680,5.9407857705730045,1.7868769700551614,0.0023083866788861864,6.155991813840673,83.75566390858944,19.76041741430784,10.279668963474009,0.01056715939986108,93.20323870703578,35.97816922568156,1.5888816109124133,0.00025245447734956254,33.95126357850985,43.14159288454543,6,6,2,4
298,123,179,512,12,32,40,1269,649728,7147008,1333912,2680,5.8723580349635265,2.0530314223798265,0.002009128038431321,5.357930658094387,81.33607797836521,21.74191111442115,8.182847250833207,0.0066958989130468565,99.2774310533423,35.3346968655219,1.7110596767465922,0.00029277252173881525,33.768460265613115,41.81403573980171,6,6,2,4
299,123,205,512,12,32,40,1269,649728,7147008,1554744,2680,5.976451594303177,2.3929151891252953,0.001723756451222838,4.596903413037773,78.2462255534064,25.750176816539792,5.1581166471300355,0.00266061673454,114.26471163658425,39.461474232997446,1.0639624193805948,0.00011320160298542086,33.672170458314405,42.81979109753946,6,6,2,4
300,123,230,512,12,32,40,1269,649728,7147008,1700216,2680,5.825250967896666,2.6168119582348304,0.0015762703091842449,4.203588249963534,76.21080037968336,24.276463665461012,6.111908117703581,0.003735542083925093,120.30412693810649,35.0820484190044,1.7615605633913771,0.00031030956184957456,33.53729942618223,41.94068507150947,6,6,2,4
301,123,256,512,12,32,40,1269,649728,7147008,1879768,2680,5.786322892040977,2.8931614460204886,0.0014257078533095574,3.802069191517251,73.69853230890465,28.134840862420567,3.919746282319583,0.0015364410917758197,125.23732154374011,38.43337981610671,1.19765300691015,0.0001434372724960924,33.271569957771035,42.78446828633615,5,6,2,4
302,123,282,512,12,32,40,1269,649728,7147008,2328056,2680,6.505530126474747,3.583124014972419,0.0011511750576446616,3.069946771039872,67.42614531843255,30.539086389782963,2.97197861770788,0.0008832656904112842,153.55215056962334,41.19304927249608,0.8716608419029653,7.597926233069863e-05,33.633621435626594,45.768040990778374,5,6,2,4
303,123,307,512,12,32,40,1269,649728,7147008,2586616,2680,6.639447819848402,3.9810751576044128,0.0010361027690233109,2.763072678743192,63.808407658141704,31.30610659089705,2.72078779311229,0.0007402686215148847,159.17879902967252,41.59157374249715,0.8325710639290517,6.931745764919529e-05,33.892801891727615,45.76444616832491,5,6,2,5
304,123,333,512,12,32,40,1269,649728,7147008,2787416,2680,6.596232165972118,4.29012756107171,0.0009614639508419268,2.5640263240219614,60.99884035389355,32.27391089879216,2.4339096638002835,0.000592391625154041,176.9138782871887,42.149848153869705,0.7807420888985559,6.095582093776806e-05,34.13566432464825,44.58999258383856,5,5,3,5
305,123,358,512,12,32,40,1269,649728,7147008,2976664,2680,6.552170142328231,4.581400216706068,0.0009003367528212791,2.4010126772789944,58.35090712085393,32.2402454068673,2.4433615181803425,0.0005970015508524549,183.65257028327323,41.165663510748345,0.8744134404663437,7.645988648681879e-05,33.758810176625246,43.96213979939144,5,5,2,5
306,123,384,512,12,32,40,1269,649728,7147008,3151704,2680,6.467740346729708,4.850805260047282,0.0008503336607752505,2.2676647299365675,55.90177036320653,30.85461940788293,2.865952773444631,0.0008213685299614973,192.15499432082288,39.042438399063286,1.1165497535754985,0.00012466833522095061,35.90822908219671,40.93921108478201,5,5,3,5
307,123,410,512,12,32,40,1269,649728,7147008,3390392,2680,6.516350496838302,5.218171296296297,0.0007904690667037912,2.1080181878673616,52.56207912457913,31.935002337810666,2.5307537154036988,0.0006404714368029624,215.6075140684843,39.64360515624918,1.0418848959831915,0.0001085524136477906,36.80623778023395,41.24007325658733,5,5,3,5
308,124,77,512,12,32,40,1269,649728,7147008,748376,2680,7.658919488706723,1.1518296887312844,0.003581087581643452,9.550022983099405,89.52882101153378,9.32646140733976,34.17251396278999,0.11677607105370767,70.747063791845,38.1930346395806,1.2312557396314674,0.00015159906963754316,34.14364321965256,53.41322662108254,6,6,2,3
309,124,102,512,12,32,40,1269,649728,7147008,950328,2680,7.341955221805034,1.4626551418439717,0.0028200789622109417,7.520569740131828,86.7031350741457,11.855639574753873,25.539831123610863,0.06522829738225622,76.02945212321356,38.545186247077346,1.182335385753158,0.00013979169644040692,33.85405332148011,50.543973761752525,6,6,2,3
310,124,128,512,12,32,40,1269,649728,7147008,1164088,2680,7.166617415287628,1.791654353821907,0.002302231446419858,6.139577076647126,83.71223314707358,18.416963999664073,11.999186403682431,0.01439804743503173,80.46149908402003,40.457110545050455,0.9487340174239245,9.000962358173395e-05,35.46189282902567,47.87477291932702,6,6,3,3
311,124,154,512,12,32,40,1269,649728,7147008,1358712,2680,6.952565165331123,2.0912012411347516,0.0019724562674061905,5.2601345980605165,80.98907962604771,22.701009482145725,7.3273936854137,0.0053690698221040565,93.2073354695458,40.73516886832411,0.9188435193635889,8.44273413076466e-05,33.817991137406345,47.426291160925174,6,6,2,3
312,124,179,512,12,32,40,1269,649728,7147008,1538520,2680,6.773115680758615,2.3679447399527187,0.0017419338065153523,4.645378675610327,78.47322963679346,25.167173342910395,5.51621687930619,0.003042864865954252,99.361455014674,39.553170759426685,1.0527892992203987,0.0001108365308552978,34.61910376265096,44.86358910927637,6,6,3,3
313,124,205,512,12,32,40,1269,649728,7147008,1722744,2680,6.62224528628265,2.651484929078014,0.0015556577181519715,4.1486187152589125,75.89559155383624,26.271386480460716,4.85769983976099,0.0023597247733213944,114.37926188623533,38.96955056681908,1.1259587277655716,0.00012677830566314646,34.95834434305991,43.10316994783718,6,6,3,4
314,124,230,512,12,32,40,1269,649728,7147008,1895544,2680,6.494480419364786,2.917442375886525,0.0014138421476895288,3.7704257986097924,73.47779658284978,28.3789980756646,3.8110978217738873,0.001452446660712967,120.31148756947368,39.575567359184355,1.0500781747975096,0.00011026641731860691,36.07288325030748,43.092434668199616,6,6,3,4
315,124,256,512,12,32,40,1269,649728,7147008,2070200,2680,6.37251280535855,3.186256402679275,0.0012945609119891799,3.452327311370882,71.03403270291568,28.930655642575648,3.576574022745503,0.0012791881740177949,125.4193989590276,38.62308448363453,1.1717791761110776,0.0001373066437567556,35.9942108360807,42.13521283775515,6,6,3,4
316,124,282,512,12,32,40,1269,649728,7147008,2389976,2680,6.67855965215253,3.6784254334121353,0.0011213501725540341,2.990409945539202,66.5597687871624,29.416954772691657,3.381833807421306,0.001143679990101769,153.53437411575578,37.92932788501058,1.269210352266626,0.00016108949183007732,34.580067626263656,41.525709069698486,5,6,3,4
317,124,307,512,12,32,40,1269,649728,7147008,2740120,2680,7.033469119545771,4.21733402285264,0.0009780593550647416,2.6082828489263243,61.66059979224873,31.02092085092864,2.8116027372447876,0.0007905109952082382,159.27601358178072,40.00819052722655,0.9990574751610501,9.981158386751722e-05,34.54270731908778,45.19443239742118,5,6,3,4
318,124,333,512,12,32,40,1269,649728,7147008,2953688,2680,6.989703651642186,4.546037726556343,0.0009073402471757342,2.419689554211548,58.67238430403324,31.77145609125274,2.578856612017449,0.0006650501425346118,176.84550251835026,39.75768815066857,1.0282899528930918,0.00010573802272208769,33.91279347094445,43.98127893774756,5,6,3,4
319,124,358,512,12,32,40,1269,649728,7147008,3181176,2680,7.002337652046436,4.896165780141844,0.0008424557459254062,2.2466559536473305,55.48940199871051,30.29932215249632,3.0551595287999227,0.0009333999746416966,183.687425886048,37.7138544152718,1.3010898210962687,0.00016928347225603205,33.86016810808682,42.454761895596114,5,6,3,4
320,124,384,512,12,32,40,1269,649728,7147008,3402072,2680,6.98153073286052,5.23614804964539,0.0007877552268147176,2.1007809358532095,52.398654094132816,30.876724284172674,2.858668431798376,0.0008171985202960586,192.25650562439114,38.19575774204842,1.2308697906767767,0.00015150404416006922,35.06783842139815,41.44343738969773,5,5,3,4
321,124,410,512,12,32,40,1269,649728,7147008,3603608,2680,6.926152722520133,5.546333234830575,0.0007436990926871069,1.9832923003833935,49.5787887742675,29.472444774247926,3.3602977510216814,0.001129160097552137,215.57036863546818,36.077521775172606,1.5708109181697743,0.00024674469406413686,33.67842897659795,39.4522588610259,5,5,3,4
322,200,77,512,12,32,40,1269,649728,7147008,747192,2680,7.6468023702066255,1.1500073877068557,0.0035867621709011876,9.565155943853789,89.54538738448313,6.265559263350646,48.60959882223804,0.2362893097658926,70.82808108092286,38.61514138863165,1.1728512379034388,0.00013755800262516286,33.73992413782686,46.15284775740451,4,6,3,5
323,200,102,512,12,32,40,1269,649728,7147008,1009080,2680,7.795855931024892,1.5530806737588652,0.0026558845681214573,7.08269711023903,85.88108478401031,10.52008775139486,29.784863383663374,0.0887138086783491,76.056344892364,38.39049139814056,1.203581296093738,0.00014486079363066823,34.157233623288924,46.019927220712155,4,5,3,6
324,200,128,512,12,32,40,1269,649728,7147008,1263448,2680,7.7783195429472025,1.9445798857368006,0.0021211795024409395,5.656748833351274,82.32200103875635,13.925446928461668,20.124618376175288,0.0405000264786692,80.48940634843893,38.37768769882328,1.2053567799243823,0.0001452884966909676,33.37453128109995,44.258515932437625,4,5,3,6
325,200,154,512,12,32,40,1269,649728,7147008,1493400,2680,7.641767216235301,2.298500295508274,0.0017945627427346992,4.785729208517477,79.1045427681066,16.81599474661524,14.427804957492201,0.020816155589143657,93.28851893544197,37.444577181202455,1.3420575541032138,0.00018011184785255005,33.479692162075835,43.16647211916121,3,5,3,6
326,200,179,512,12,32,40,1269,649728,7147008,1748536,2680,7.6976812780925465,2.6911815405831363,0.0015327107934866653,4.08742399355804,75.53471326742603,18.299717857556097,12.162255064745404,0.014792044825992523,99.24431746965274,37.12562023891684,1.3922556469580323,0.0001938375786486529,34.029568338244914,45.33171692743131,3,5,3,6
327,200,205,512,12,32,40,1269,649728,7147008,2021368,2680,7.770158949816449,3.1110987982663514,0.001325834781197684,3.535728279066454,71.71728365212408,19.624255225197498,10.442085351870304,0.01090371464957444,114.34076540917158,37.23390467679595,1.3750065473970534,0.00018906430053847658,33.20866050109714,45.488925524590094,3,4,3,7
328,200,230,512,12,32,40,1269,649728,7147008,2311224,2680,7.918676122931442,3.5572177895981087,0.0011595587446305508,3.0923043374419787,67.661656458199,20.6753653373461,9.251917109112311,0.008559797019388509,120.3613560271915,38.15476047481793,1.2366932098165093,0.00015294100952062607,33.53876850811302,45.28942569338641,3,4,3,6
329,200,256,512,12,32,40,1269,649728,7147008,2599544,2680,8.001945429472025,4.000972714736013,0.001030950043546099,2.7493314212031033,63.62752077512716,21.686706897507005,8.235019940598587,0.006781555342205635,125.34143284219317,38.27803633618358,1.2192652133368118,0.00014866076604532613,33.9034157754823,45.14331387368392,3,4,3,6
330,200,282,512,12,32,40,1269,649728,7147008,2842872,2680,7.944134265546669,4.375480200945627,0.0009427086411206695,2.514009776029311,60.22290726413067,22.524475009284632,7.4778413950846225,0.005591811193004114,153.52131694718264,37.34022953158801,1.3582775525410653,0.00018449179097369462,33.55664750793691,44.80433728431758,3,4,3,6
331,200,307,512,12,32,40,1269,649728,7147008,3062200,2680,7.860199238673145,4.71304915287628,0.0008751877734961793,2.333945529357978,57.154098610215634,23.290625923563763,6.846501439771241,0.004687458196478968,159.22369866864756,37.075853586580976,1.4002556079504858,0.00019607157675967843,33.85682436425593,44.24120441825188,3,4,4,6
332,200,333,512,12,32,40,1269,649728,7147008,3290936,2680,7.787778322057282,5.065098010244287,0.0008143579820452297,2.17172500467952,53.95365445232466,24.04371526419862,6.277897733415017,0.0039411999951217405,176.81043209671043,37.97258858938791,1.2629046738778897,0.0001594928215302619,33.5966260726255,41.34865921097036,3,4,4,7
333,200,358,512,12,32,40,1269,649728,7147008,3514104,2680,7.735171757993581,5.408577127659575,0.0007626410601393698,2.0338066260987153,50.8311170212766,24.72559446733432,5.803904752330883,0.003368531037412901,183.71793185104616,36.92057627312948,1.4255130135267633,0.00020320873517341541,33.48354436036528,41.05369094701546,2,4,4,7
334,200,384,512,12,32,40,1269,649728,7147008,3768504,2680,7.733500788022065,5.800125591016548,0.0007111575309459669,1.8965106578101019,47.271585536213195,25.4409750229162,5.345043559581297,0.0028569490653821508,192.24733374617063,36.68232366735866,1.4651558269714933,0.00021466815973085202,33.121301687100136,42.008876333649276,2,4,4,7
335,200,410,512,12,32,40,1269,649728,7147008,4035032,2680,7.755351823021776,6.210340327029157,0.0006641830845455501,1.7712394845939263,43.542360663371305,26.14380815975405,4.929576288634372,0.0024300722385466227,215.65015311120078,36.958246737730484,1.4193439898844318,0.0002014537361621058,33.3035300244382,42.37077791815163,2,4,4,7
336,201,77,512,12,32,40,1269,649728,7147008,638232,2680,6.531699978508489,0.9823064420803782,0.0041991000137880895,11.198134847516263,91.06994143563293,4.176317808971373,61.82784500796266,0.38226824183286523,70.71624520304613,37.654772408104066,1.309970089669309,0.00017160216358282171,33.85017358669977,44.03530612757319,5,6,2,4
337,201,102,512,12,32,40,1269,649728,7147008,813752,2680,6.286809128694819,1.252450256107171,0.003293386682920595,8.782783944002595,88.6140885808439,8.76891265994919,36.4379861978825,0.13277268381570753,76.09123118990101,38.09463859480604,1.2452830312510008,0.00015507298279216814,33.28063643166773,43.292453017545256,4,6,2,5
338,201,128,512,12,32,40,1269,649728,7147008,1125528,2680,6.929225768321513,1.7323064420803782,0.0023811046904208513,6.349915772863936,84.2517596174511,14.4287043009856,18.99174126211108,0.036068623616697264,80.40339988307096,40.782450947757305,0.9138553372344507,8.351315773918915e-05,37.132212566276856,45.09515628658834,4,6,3,5
339,201,154,512,12,32,40,1269,649728,7147008,1325208,2680,6.781124313039206,2.039635047281324,0.0020223240427163134,5.39312168353949,81.45786320653342,18.552092205310544,11.813957107142748,0.013956958252940865,93.26108720828779,39.37787405537739,1.0742523124649173,0.00011540180308362223,35.36018539635592,44.12674108595514,4,5,3,5
340,201,179,512,12,32,40,1269,649728,7147008,1519032,2680,6.68732252994704,2.3379506501182035,0.0017642814634583077,4.704975273726952,78.74590318074361,20.83894076627346,9.079312445434704,0.00824339144818255,99.31144819385372,40.25156431586541,0.971452978578065,9.437208895881946e-05,36.66057919924865,43.448385448285755,3,5,3,5
341,201,205,512,12,32,40,1269,649728,7147008,1699320,2680,6.532203194372369,2.6154329196217496,0.001577101428806817,4.205804674811101,76.22333709434773,22.926424472329018,7.13968048040187,0.005097503736223147,114.31940357713029,39.55598742559052,1.0524479553433224,0.00011076466987063399,35.953730093044065,43.137260108041765,3,5,3,5
342,201,230,512,12,32,40,1269,649728,7147008,1969400,2680,6.7475245828622334,3.031114558707644,0.001360820554483599,3.629028130395044,72.44441310265778,24.20618790501974,6.161558905309008,0.0037964808143592737,120.33936681062914,38.93906288809637,1.1299178137942412,0.00012767142659295575,34.874582719556514,42.045600941426926,3,5,3,5
343,201,256,512,12,32,40,1269,649728,7147008,2284824,2680,7.033170803782506,3.516585401891253,0.0011729568666995795,3.128034369386876,68.0310418009886,25.460331494922713,5.333145412759458,0.002844243999363725,125.32169616292231,39.99371486479013,1.0007238647958443,0.0001001448253571931,36.28814415597054,44.604787237580766,3,5,3,5
344,201,282,512,12,32,40,1269,649728,7147008,2554968,2680,7.139614036852606,3.9323655437352247,0.0010489368164297947,2.797298439745625,64.25122232967978,26.295869058667297,4.8440269094960495,0.002346459669992185,153.51278752158396,39.49147598069935,1.0602937488755113,0.00011242228339044856,35.76828824041318,44.4395861601565,3,5,3,5
345,201,307,512,12,32,40,1269,649728,7147008,2764216,2680,7.095319867653362,4.254420311268715,0.0009695334952116622,2.585546136770788,61.32345171573895,26.94303754666245,4.496225896631469,0.002021604731353946,159.20542587037198,38.70580437177117,1.160672731596452,0.00013471611898715696,34.92293484280949,43.180797988029106,3,4,3,5
346,201,333,512,12,32,40,1269,649728,7147008,2969208,2680,7.026430686005154,4.569924645390071,0.0009025975950489154,2.407041877834089,58.4552304964539,27.07619734450312,4.427821785977328,0.0019605605768375457,176.80794204911217,37.35229198489791,1.3563925656454145,0.00018398007921381504,34.91967317177412,40.404907890720345,3,4,3,5
347,201,358,512,12,32,40,1269,649728,7147008,3146968,2680,6.9270397224753575,4.843516055949567,0.0008516133624491892,2.2710774307206174,55.96803585500394,27.6479194778234,4.145758750772209,0.001718731561960435,183.67907090857625,37.1510984603739,1.3881777430348279,0.0001927037446257269,33.8920901220515,40.234333229141605,3,4,3,5
348,201,384,512,12,32,40,1269,649728,7147008,3366520,2680,6.908573023377988,5.181429767533491,0.0007960742844242719,2.1229661490203533,52.89609302242281,27.43084681214724,4.250672637648925,0.0018068217872457266,192.21123301633634,35.745973769350094,1.6319291933859095,0.0002663192892225185,33.34179917652472,38.91970983833987,3,4,3,5
349,201,410,512,12,32,40,1269,649728,7147008,3585144,2680,6.890664821541832,5.517915189125295,0.0007475292484764907,1.9935065369759206,49.8371346443155,28.352091084060103,3.8229220766062078,0.0014614733203803117,215.6802693605423,36.66590649666226,1.4679277318150112,0.0002154811825831563,33.83495871091037,43.89028138866969,2,4,3,5
350,202,77,512,12,32,40,1269,649728,7147008,707928,2680,7.2449725215682665,1.0895759456264775,0.0037856957204687484,10.095670746177577,90.09476413066838,3.8468566163155047,64.2180581672213,0.41239589947686184,70.72316700662486,40.800691494761686,0.9119382358988647,8.316313460943333e-05,35.983212792433456,46.598661442168684,5,6,3,5
351,202,102,512,12,32,40,1269,649728,7147008,925848,2680,7.15282992629676,1.4249778368794326,0.0028946436132064875,7.719418306244654,87.0456560283688,8.969958867390647,35.60426760957902,0.12676638720145172,76.01679437165149,38.30605813911242,1.2153380443093538,0.00014770465619456848,33.75006359959662,42.3029406909325,4,6,3,5
352,202,128,512,12,32,40,1269,649728,7147008,1147320,2680,7.063386524822695,1.7658466312056738,0.00233587839486804,6.229306557891434,83.94684880722114,14.061869222405635,19.811006427457162,0.039247597566874896,80.49892402649857,37.87081193403413,1.2777897595698566,0.0001632746669661592,33.48878627633498,44.93877381150962,4,6,3,5
353,202,154,512,12,32,40,1269,649728,7147008,1436152,2680,7.348827689253222,2.2103895784081953,0.0018660977389579933,4.976498309371153,79.90554928719823,18.285846905930374,12.181693122906271,0.01483936473406619,93.25347731518559,38.229392163580684,1.2261127027409513,0.000150335235982272,34.38795976822786,44.25026882011176,4,6,3,6
354,202,179,512,12,32,40,1269,649728,7147008,1667064,2680,7.339012375028065,2.5657875295508275,0.0016076167441681903,4.287182735635825,76.6746588222652,20.69950279757112,9.226242390027684,0.008512354863954373,99.26689240848646,37.675684147117444,1.306820060799059,0.00017077786713068564,33.12539422684761,44.82202359179109,3,5,3,5
355,202,205,512,12,32,40,1269,649728,7147008,1897720,2680,7.294854792519557,2.9207914696611503,0.0014122209809666337,3.766102480871783,73.44735027580772,22.449840292414613,7.542372638921606,0.005688738502435327,114.22585989278741,37.21800786943607,1.377525371563436,0.00018975761493009822,33.6049349453892,46.16653644551131,3,5,3,6
356,202,230,512,12,32,40,1269,649728,7147008,2108088,2680,7.222695035460993,3.2445700354609928,0.0012712941774726673,3.390279722668124,70.50390876853643,23.622492758552035,6.589847464442918,0.004342608960462475,120.38308569067158,36.39839829136471,1.5138403801958422,0.0002291712696711492,33.35435452047876,42.01597633926045,3,5,3,6
357,202,256,512,12,32,40,1269,649728,7147008,2353944,2680,7.245936761229315,3.6229683806146573,0.001138514765007154,3.0361843782180036,67.06392381259403,24.6208196528623,5.8743391611165805,0.003450786057982785,125.31720328656957,36.03344162270201,1.5788029124091967,0.00024926186362317614,33.21928681140433,45.15273834084402,3,5,3,6
358,202,282,512,12,32,40,1269,649728,7147008,2595032,2680,7.251569058118024,3.9940282702915684,0.0010327425634828395,2.7541117026687916,63.690652088258474,25.538291499138243,5.285492063504745,0.002793642635337165,153.52303965669125,37.13734493360677,1.3903775710601762,0.00019331497901071954,33.41207287047276,45.87519640755635,3,5,3,6
359,202,307,512,12,32,40,1269,649728,7147008,2901272,2680,7.447121665986452,4.465363967691095,0.0009237327627330357,2.4634050168339954,59.405782111899136,26.07708310183911,4.967591152430451,0.0024676961857705293,159.11649565119296,36.7568500557062,1.452638322437761,0.00021101580958147925,33.186203167341546,45.91236111249643,3,5,3,6
