,record,m,n,d,b,f,w,s,u_bits,c_bits,overhead_bits,bpm,bps,overhead,cr,pss,snr,prd,nmse,rtime,qc_snr,qc_prd,qc_nmse,min_qc_snr,max_qc_snr,min_q,max_q,min_rng,max_rng
0,100,77,512,4,32,40,1269,649728,7147008,650808,2680,6.660403426360873,1.0016622340425532,0.0041179579845361455,10.981745768337206,90.89397969052224,8.072927998486142,39.4778597728484,0.15585014122446816,70.76698943320662,40.31311513429445,0.9645933050398365,9.30440244127675e-05,35.229556107881244,45.26674629498024,4,5,3,3
1,100,102,512,4,32,40,1269,649728,7147008,842776,2680,6.511040034611165,1.297121256895193,0.0031799671561601184,8.48031742716926,88.20798857368007,13.932113971458017,20.109177215676773,0.040437900829149394,75.55385830695741,39.522050133695785,1.056568097627442,0.00011163361449240717,33.77798550542903,43.8888683893199,4,4,2,3
2,100,128,512,4,32,40,1269,649728,7147008,1040888,2680,6.408146178092987,1.6020365445232467,0.00257472465817648,6.86626034693454,85.43603141342503,17.492338304999716,13.346982306708291,0.017814193669558418,80.18241603230126,36.64890094820641,1.4708045089580761,0.00021632659035714072,33.722483893047766,39.72195274415534,4,4,3,3
3,100,154,512,4,32,40,1269,649728,7147008,1333368,2680,6.822879248411163,2.05219414893617,0.0020099477413587246,5.3601166369674385,81.34368955512572,20.114708338502773,9.86880534862806,0.00973933190091098,92.60180835681967,38.0695734220505,1.248881777668329,0.00015597056945920056,34.78016468389205,41.989651959079715,3,4,3,4
4,100,179,512,4,32,40,1269,649728,7147008,1592568,2680,7.011054320694164,2.451130319148936,0.0016828166834948336,4.487725484877255,77.71699709864603,21.900326910440423,8.034958804779455,0.00645605629945029,99.24315597862005,35.9097829969703,1.6014406572723905,0.0002564612178765026,33.91044130408979,41.7333894605986,3,3,3,4
5,100,205,512,4,32,40,1269,649728,7147008,1818680,2680,6.9910242364835,2.799140563435776,0.001473596234631711,3.9297776409263863,74.5532676051293,23.988605777854456,6.317855826895843,0.003991530224944175,114.32195348595269,38.99263314643487,1.1229704871094508,0.0001261062714918837,34.7686582736929,42.94107338194477,3,3,3,3
6,100,230,512,4,32,40,1269,649728,7147008,2015192,2680,6.904416349744749,3.101593282111899,0.0013298980940773882,3.5465642975954648,71.80369743534636,24.84584671681322,5.724105955920806,0.003276538899460805,120.18733476591296,36.66800439020576,1.467573227628541,0.00021537711784520535,33.63837260374151,40.65549451127672,3,3,3,4
7,100,256,512,4,32,40,1269,649728,7147008,2211928,2680,6.808781520882585,3.4043907604412924,0.0012116126745536021,3.2311214469910414,69.05099308689734,26.06152210781462,4.976498696031137,0.0024765539271599606,125.12900370056741,36.619059383376296,1.4758663498653808,0.00021781814826649627,33.6413594361913,40.01919968433335,3,3,3,4
8,100,282,512,4,32,40,1269,649728,7147008,2397784,2680,6.7003783623671955,3.6904427698975573,0.0011176986751100183,2.9806721539554855,66.45052027365857,26.685807526265332,4.631371552000118,0.002144960245267598,153.11421193229035,35.55987395900331,1.6672714061609104,0.00027797939418017795,33.31813256131799,39.87771505691874,3,3,3,4
9,100,307,512,4,32,40,1269,649728,7147008,2628440,2680,6.746803633628778,4.04544671000788,0.0010196161982012144,2.7191063901021137,63.22321172720109,28.194191641296488,3.893053911596685,0.001515586875859825,159.49779910570942,38.06583043638048,1.2494200707081222,0.00015610505130882893,33.62382379905689,41.73622062776949,2,3,3,4
10,100,333,512,4,32,40,1269,649728,7147008,2980728,2680,7.053691989862203,4.587655141843972,0.0008991092109041817,2.3977390758230874,58.29404416505481,28.03080070074139,3.966979580099319,0.0015736926988924968,180.0610510762781,35.86329130124181,1.6100354368032865,0.00025922141077623493,33.76549613863817,44.20361619517928,2,3,3,4
11,100,358,512,4,32,40,1269,649728,7147008,3353144,2680,7.38086999396877,5.16084269109535,0.0007992498980061698,2.1314348563616714,53.08324826276954,28.89188283676996,3.5925751220914792,0.0012906596007870605,185.23396048136055,36.97583375529741,1.4164730377470738,0.00020063958666644227,34.38354799093237,44.61170394862685,2,3,3,4
12,100,384,512,4,32,40,1269,649728,7147008,3635352,2680,7.4602541371158395,5.59519060283688,0.0007372050904561649,1.96597413400408,49.1346308833011,29.35493256071703,3.4060684535902026,0.0011601302310542355,195.16443321597762,36.52830890585137,1.4913670880223524,0.00022241757912362713,33.902520686583195,44.126533786386716,2,2,3,5
13,100,410,512,4,32,40,1269,649728,7147008,3815704,2680,7.333802302562033,5.872771375098503,0.0007023605604627612,1.8730509494447158,46.61116931728634,29.68595269803198,3.278705167001663,0.0010749907572123404,216.30986114311963,35.583980111714276,1.662650603899356,0.0002764407030646894,33.74196533531406,40.024300092368236,2,2,4,5
14,101,77,512,4,32,40,1269,649728,7147008,699864,2680,7.162445119891928,1.077164598108747,0.003829315409851057,10.211995473406262,90.20759456264776,9.819838585491874,32.285541190939696,0.10423561699918639,70.74417414539494,38.691986875950406,1.1625205968511743,0.00013514541381032106,34.182886543979855,45.466658352817504,4,5,3,6
15,101,102,512,4,32,40,1269,649728,7147008,889400,2680,6.871243375206663,1.3688805161544524,0.0030132673712615246,8.035763436024286,87.55563167132316,14.125518709457587,19.666363609409064,0.038676585761748906,76.05945061263628,37.46127834334208,1.3394795353979687,0.00017942054257499582,33.8663123186,42.42936489385466,4,5,3,6
16,101,128,512,4,32,40,1269,649728,7147008,1094296,2680,6.7369483845547675,1.6842370961386919,0.002449063141965245,6.531146965720427,84.68875367146644,18.01244317877586,12.57123199319273,0.01580358738266725,80.64833437418565,36.94599276447453,1.4213478004844107,0.00020202295699418718,33.788185987539656,40.87932945508514,3,4,3,7
17,101,154,512,4,32,40,1269,649728,7147008,1428920,2680,7.311821354374546,2.199258766745469,0.0018755423676622904,5.001685188813929,80.0067384841321,20.486647606427574,9.455132509714288,0.0089399530776256,93.20736417919397,38.9688359060609,1.1260513736149116,0.0001267991696020029,34.25438843857627,44.44781184822142,3,4,3,7
18,101,179,512,4,32,40,1269,649728,7147008,1658008,2680,7.299144621859468,2.5518493892829,0.0016163975083353036,4.31059922509421,76.80136918833728,22.27702210889581,7.69394176007098,0.005919673980736412,99.28165096486919,37.112541855222055,1.3943535516598056,0.00019442218270263143,33.94392787059081,42.07170654400822,3,4,3,8
19,101,205,512,4,32,40,1269,649728,7147008,1876984,2680,7.215145399680948,2.888876576044129,0.0014278225067448631,3.8077085366737276,73.7374856723261,23.682900919414827,6.544175747321527,0.004282623621183128,114.57941225171089,37.050330871769845,1.4043761856285306,0.0001972272470760541,33.08144714000269,43.63319839563022,3,4,3,8
20,101,230,512,4,32,40,1269,649728,7147008,2071992,2680,7.099023537876452,3.1890144799054374,0.0012934412874180982,3.4493415032490473,71.00895927358694,24.468499798035456,5.978262906158184,0.0035739627375146895,120.3412084877491,35.72759682969421,1.6353855591785378,0.00026744859271696984,33.39501885202116,41.20562043029723,3,4,3,8
21,101,256,512,4,32,40,1269,649728,7147008,2274552,2680,7.001551418439717,3.5007757092198584,0.0011782540034257296,3.1421607419834765,68.17476627981947,25.852424653387416,5.09775274688912,0.002598708306841557,125.42191386129707,36.72980820430835,1.4571678805290478,0.00021233382320455171,33.35639147968263,40.573165772537244,3,3,3,8
22,101,282,512,4,32,40,1269,649728,7147008,2488504,2680,6.953886737197436,3.830070429472025,0.0010769522572597833,2.8720098500946754,65.18117791389068,26.68160177694338,4.633614627275289,0.0021470384514099515,153.5793702073861,36.255299384670685,1.538987281560181,0.00023684818528039962,32.25389661679373,40.33747858074422,2,3,4,8
23,101,307,512,4,32,40,1269,649728,7147008,2771096,2680,7.1129797758115725,4.265009357762017,0.0009671263644420836,2.5791268148054054,61.227187656708935,27.17737073031196,4.376545657104065,0.0019154151888716446,159.3730237414129,35.241429852825306,1.729531623932799,0.0002991279638183624,27.23146536952081,44.773349206290675,2,3,3,8
24,101,333,512,4,32,40,1269,649728,7147008,3169528,2680,7.500474469741609,4.878238278171789,0.0008455517666983854,2.254912403361005,55.65237928934737,28.47409478902101,3.7695999286341375,0.0014209883621958497,177.0636962566059,37.51951549658995,1.3305286334825392,0.00017703064445169134,31.178412305790744,44.85152840726879,2,3,4,8
25,101,358,512,4,32,40,1269,649728,7147008,3457912,2680,7.611483110353905,5.32209170606777,0.0007750341824777496,2.066856530761916,51.61734812665664,28.896512375172225,3.5906608066221963,0.0012892845028212765,183.79083663690835,37.71452944185001,1.3009887104305988,0.00016925716246678728,31.02274922053919,43.68159489654823,2,3,4,8
26,101,384,512,4,32,40,1269,649728,7147008,3732120,2680,7.658835697399527,5.744126773049645,0.0007180905222768829,1.9149995177003956,47.78066569954868,29.552490573068738,3.329472800426065,0.0011085389128776982,194.8214457856957,37.92112196724313,1.2704099941594926,0.00016139415532603218,30.983680237822394,44.9899667188725,2,3,3,8
27,101,410,512,4,32,40,1269,649728,7147008,3953624,2680,7.598885237079321,6.085044818754925,0.0006778590983866953,1.8077105966576488,44.68141073859159,29.743252104672976,3.257147265407998,0.00106090083085548,218.45288976863958,37.07537420398375,1.4003328915359474,0.00019609322071174277,30.724740618078123,44.456788142601866,2,3,3,8
28,102,77,512,4,32,40,1269,649728,7147008,659544,2680,6.749808111510239,1.0151078605200945,0.004063413509940201,10.836286889123395,90.77174672254459,8.74787527190265,36.52634664783193,0.1334173999437583,70.76766194379888,39.365613202712126,1.075769779346032,0.00011572806181542106,35.966830740928046,42.813955762703635,4,4,3,3
29,102,102,512,4,32,40,1269,649728,7147008,834904,2680,6.450223272918309,1.2850054176516943,0.0032099498864540115,8.560275193315638,88.31813256680277,12.077906384435558,24.894572957944565,0.06197397627584247,76.02107847086154,36.84070999872721,1.4386809733297394,0.00020698029430210062,34.04172890907062,40.03560802763627,4,4,3,4
30,102,128,512,4,32,40,1269,649728,7147008,1117144,2680,6.877610323089047,1.7194025807722617,0.002398974527903296,6.397570948776523,84.3690674475249,15.572250912404222,16.64897320615539,0.027718830881928006,80.71714966115542,37.874607601614656,1.2772314971694838,0.00016313202973618015,34.817171953584136,43.151625845197856,3,4,3,4
31,102,154,512,4,32,40,1269,649728,7147008,1367064,2680,6.995302569770655,2.10405585106383,0.0019604056576722085,5.227998103965871,80.87221953578337,18.163578291799002,12.354383699060744,0.015263079658361786,93.1869402336888,38.26209114047984,1.2215055455370971,0.0001492075797777881,34.79298123787519,42.68705012461641,3,3,3,3
32,102,179,512,4,32,40,1269,649728,7147008,1559224,2680,6.864262098780107,2.3998103821907013,0.0017188037126160192,4.583695479289698,78.18354198008453,20.047927708272116,9.944973142148324,0.00989024907980515,99.30984265380539,39.38631683865405,1.0732086343445983,0.00011517767728317977,35.2426394683593,42.863387782076884,3,3,3,3
33,102,205,512,4,32,40,1269,649728,7147008,1760856,2680,6.768748198120279,2.7101433215130024,0.0015219870335791228,4.058825934659052,75.36233344079089,21.879678641256405,8.05408238974841,0.006486824314085549,114.54448184557259,37.791286621047895,1.289542526753348,0.00016629199283054092,34.25705707800177,41.859963744490585,3,3,3,3
34,102,230,512,4,32,40,1269,649728,7147008,1947768,2680,6.673409394593484,2.9978206264775413,0.0013759338894570605,3.6693322818734058,72.74708521384053,23.500729333990062,6.682878006373426,0.0044660858448069655,120.37420020345598,37.12789582492023,1.3918909425214017,0.00019373603958731158,33.36418710898812,40.29429984773878,2,3,3,4
35,102,256,512,4,32,40,1269,649728,7147008,2230808,2680,6.866898148148148,3.433449074074074,0.00120135843156381,3.203775493005225,68.7868265993266,24.510858171616377,5.949179755674452,0.0035392739765326728,125.3164828417357,36.29605534153104,1.5317829562156404,0.00023463590249527268,33.40476775473213,41.272606713549315,2,3,3,4
36,102,282,512,4,32,40,1269,649728,7147008,2568440,2680,7.177260254067256,3.953100374310481,0.001043434925480058,2.782626029807977,64.06272386990472,25.330351921547486,5.413553136344753,0.002930655756002811,155.49300321377814,36.01461256296215,1.5822291151390517,0.0002503448972793706,33.18875511203716,43.15273855120012,2,3,3,4
37,102,307,512,4,32,40,1269,649728,7147008,2877720,2680,7.386667282709975,4.429114952718676,0.0009312928290452164,2.4835661565405944,59.735318611648395,26.97701441744691,4.478672221789772,0.0020058504870231328,159.3973626086954,39.68071749412809,1.0374427147750933,0.00010762873864399156,33.65627147234212,45.363683002927075,2,3,3,4
38,102,333,512,4,32,40,1269,649728,7147008,3120088,2680,7.383478040688442,4.802144897557132,0.0008589501321757592,2.290643084425824,56.344137294935166,27.226164887760643,4.3520287491313505,0.0018940154233265784,177.12197071965784,36.91717723618621,1.4260709666884863,0.00020336784020318337,33.76379733274198,43.70923312948184,2,2,3,4
39,102,358,512,4,32,40,1269,649728,7147008,3325752,2680,7.32057530013075,5.118683510638298,0.0008058327860886801,2.1489900629992857,53.466513539651835,27.811635189215497,4.0683493662087615,0.0016551466565531232,183.81348014320247,36.17394444294426,1.5534696677133897,0.00024132680085055494,33.72327312700698,42.607715200471006,2,2,3,4
40,102,384,512,4,32,40,1269,649728,7147008,3560728,2680,7.307115182558445,5.480336386918833,0.0007526550750296007,2.0071760606258047,50.17876011891969,28.677759671377615,3.6822393642470987,0.001355888673561088,194.65532176662236,37.80151125036261,1.2880254297751519,0.00016590095077474644,33.64080411638008,43.56831000682485,2,2,3,4
41,102,410,512,4,32,40,1269,649728,7147008,3770072,2680,7.246097368775106,5.80253890858944,0.0007108617554253605,1.895721885417573,47.24964628555054,29.695483534882463,3.275109488575725,0.0010726342162158747,218.31329324049875,38.70295562769169,1.1610534642542976,0.00013480451468569056,33.60996630115356,43.37107532926226,2,2,3,4
42,103,77,512,4,32,40,1269,649728,7147008,693688,2680,7.099239609877908,1.0676590819542948,0.003863408333429438,10.302914278465247,90.29400834587005,8.549084365414226,37.3719519444905,0.1396662792141307,70.80240103253163,38.84768182909219,1.1418680162976296,0.00013038625666434838,33.99932676335409,45.74190089949619,4,5,3,5
43,103,102,512,4,32,40,1269,649728,7147008,892792,2680,6.897448971708463,1.3741011623325452,0.0030018190127151676,8.00523302180127,87.50817125152231,12.869862675061755,22.725155637255572,0.05164326987374886,76.03716732980683,37.495092491272736,1.334275081753167,0.00017802899937874206,32.996462974230035,45.84605317896264,3,5,3,5
44,103,128,512,4,32,40,1269,649728,7147008,1187704,2680,7.312007486209614,1.8280018715524036,0.0022564544701373407,6.017499309592289,83.38180116770542,15.932794118549326,15.972036502951587,0.025510595005161795,80.66527304425836,36.749038080242926,1.4539453940268874,0.0002113957208812001,33.22771242303878,42.952278601025014,3,4,3,7
45,103,154,512,4,32,40,1269,649728,7147008,1449944,2680,7.419401717274058,2.2316169227738376,0.0018483472465143482,4.929161402095529,79.71257342932874,18.831358860782842,11.440158906747032,0.013087723581162345,93.20837655453943,37.67335390453055,1.30717070033114,0.0001708695239804203,34.38062518163952,43.2871623413354,3,4,3,6
46,103,179,512,4,32,40,1269,649728,7147008,1659640,2680,7.306329269956989,2.554361209613869,0.001614808030657251,4.306360415511798,76.77853445805573,20.8072292806968,9.112520869847115,0.008303803660339924,99.29221184784546,37.91398693992458,1.2714540016697289,0.0001616595278361967,33.506005938446144,42.89233944727178,3,4,3,7
47,103,205,512,4,32,40,1269,649728,7147008,1862584,2680,7.159791654654136,2.8667134554767535,0.0014388612808871977,3.8371466736533764,73.93896858657497,22.86536984264226,7.19004333413082,0.005169672314667905,114.52823262941092,37.016912392988054,1.4097898528493369,0.00019875074291969555,33.3607309390389,42.118341116268915,3,4,3,7
48,103,230,512,4,32,40,1269,649728,7147008,2099032,2680,7.191667523212389,3.2306318951930653,0.0012767790105153232,3.404906642681007,70.6306191346085,24.369498339577174,6.046792740657681,0.0036563702448470423,120.40676959021948,36.92192019252487,1.4252924688887176,0.00020314586218708963,33.24626999478855,45.98638405612756,2,3,3,8
49,103,256,512,4,32,40,1269,649728,7147008,2322136,2680,7.148025019700552,3.574012509850276,0.001154109836805424,3.0777732225847236,67.50897718317931,25.866404971797326,5.089554291041902,0.002590356288146304,125.42387859919108,36.90804031291937,1.4275718787649718,0.00020379614690405515,33.160244075680396,44.58436354633655,2,3,3,7
50,103,282,512,4,32,40,1269,649728,7147008,2689976,2680,7.516880997490625,4.140157111899133,0.0009962914167263946,2.656904002117491,62.36220807364425,26.992938502553276,4.4704688683986795,0.001998509190332177,153.6847883653827,36.338349292557204,1.5243424194962383,0.00023236198118756457,31.13548132629889,43.37815454962508,2,3,4,8
51,103,307,512,4,32,40,1269,649728,7147008,3025144,2680,7.765082151941948,4.656016055949567,0.0008859082410622437,2.362534808260367,57.67258130954939,28.08334077039072,3.9430561492084064,0.0015547691795810225,159.39301417395473,38.00764346629613,1.257818061627671,0.0001582106276156792,33.82306344230408,44.68356780078545,2,3,4,7
52,103,333,512,4,32,40,1269,649728,7147008,3272120,2680,7.743251525757436,5.036138199369582,0.0008190408664718898,2.184213292911018,54.21692546027652,28.72485512761577,3.662328052891089,0.0013412646766993036,177.08715384686366,37.331826194252976,1.3595922811535326,0.00018484911709722664,33.694866919270055,43.51850133245385,2,3,4,8
53,103,358,512,4,32,40,1269,649728,7147008,3474200,2680,7.647335913115064,5.347160657998424,0.000771400610212423,2.057166541937712,51.38944856365069,29.50552164435661,3.34752568358964,0.0011205928202292288,184.19872001511976,37.41071558058887,1.347299724481523,0.00018152165475879883,33.8743274635727,42.26210529027134,2,3,4,7
54,103,384,512,4,32,40,1269,649728,7147008,3706808,2680,7.606891909640137,5.7051689322301025,0.0007229940153361059,1.9280761237161461,48.13482788881725,29.865725576471704,3.2115428515893725,0.00103140074875948,195.68893547938205,36.258507573979934,1.5384189516551992,0.0002366732870811882,32.04086230630661,41.6749689303725,2,3,4,8
55,103,410,512,4,32,40,1269,649728,7147008,3936632,2680,7.566226527513502,6.058892336485422,0.000680784995905129,1.815513362691763,44.91916057740526,30.428339118660944,3.010114696030344,0.0009060790483257852,216.04242537473328,36.402400237754385,1.5131430523624239,0.00022896018969126734,33.4138465991427,41.22073691074254,2,3,4,8
56,104,77,512,4,32,40,1269,649728,7147008,684856,2680,7.008852455660966,1.0540657013396375,0.003913231394628944,10.435782120620978,90.41758453327603,9.19685218330961,34.68625326671181,0.12031361656824757,70.74443769291975,38.560029082816385,1.1803166836108576,0.00013931474736101335,34.70721357581492,44.248514824537544,4,4,3,5
57,104,102,512,4,32,40,1269,649728,7147008,889496,2680,6.871985043032185,1.3690282702915682,0.0030129421605043756,8.034896165918678,87.55428845189483,12.101290262143156,24.827642709189814,0.06164118424951861,76.03535075322725,37.42940389189605,1.3444040292570225,0.00018074221938825175,33.699706148345754,42.448189946517715,3,4,3,5
58,104,128,512,4,32,40,1269,649728,7147008,1196824,2680,7.368154058313633,1.8420385145784082,0.002239259907889548,5.9716449536439775,83.25419532201447,14.210735535579477,19.47436130829496,0.03792507483660158,80.67913660709746,37.19187352939107,1.381676348873667,0.0001909029533036867,33.25166395552805,43.1631745473973,3,4,3,5
59,104,154,512,4,32,40,1269,649728,7147008,1419288,2680,7.262534156151178,2.1844341016548463,0.0018882707385675071,5.035629132353687,80.14150816677413,15.863994295935694,16.09905133447581,0.025917945387008732,93.22539074998349,37.327464539771164,1.360275177341218,0.00018503485580906824,33.66350398010916,43.355936304339885,3,4,3,5
60,104,179,512,4,32,40,1269,649728,7147008,1628472,2680,7.169116578839627,2.50639036643026,0.0016457145102894,4.388781630878516,77.21463303245218,17.188184227953837,13.822633357525312,0.01910651929365715,99.38207781501114,36.81687807038811,1.4426337776163485,0.0002081192216319616,33.39751424480768,41.228766697300955,3,3,3,5
61,104,205,512,4,32,40,1269,649728,7147008,1824824,2680,7.014641834361606,2.80859682821119,0.0014686347834092493,3.91654647242693,74.46730156171645,18.364426093854778,12.071985227110284,0.014573282732356894,114.5004124827683,37.065844013494015,1.40187018521259,0.00019652400161879817,33.43200640814058,43.01082133886575,3,3,3,6
62,104,230,512,4,32,40,1269,649728,7147008,2064824,2680,7.074464658923493,3.177982171000788,0.0012979314459731193,3.4613158312766608,71.10925299090192,19.359655419939404,10.765079191927294,0.011588693000846601,120.4327621771954,35.70047070102444,1.6405008696565013,0.00026912431033437374,33.557964757980855,40.49159888288455,2,3,3,5
63,104,256,512,4,32,40,1269,649728,7147008,2353272,2680,7.243868203309693,3.6219341016548463,0.0011388398791129968,3.037051390574485,67.0733263485923,20.302892885098743,9.657291838072284,0.009326328564569754,125.36807782761753,37.612630187378535,1.31634124908012,0.00017327542840298108,33.49175971835164,45.148185455550376,2,3,3,5
64,104,282,512,4,32,40,1269,649728,7147008,2706936,2680,7.564274097547072,4.166260342789598,0.0009900492660336261,2.6402574719165877,62.124905974640015,21.182384858649456,8.727317121618434,0.007616606414129427,153.6961029486265,37.572546528756874,1.3224299412157277,0.0001748820949423833,33.8330185561788,44.969442185211875,2,3,3,5
65,104,307,512,4,32,40,1269,649728,7147008,2970072,2680,7.623720747568554,4.571254432624113,0.0009023350275683552,2.4063416644444984,58.44314152159897,21.905447989278148,8.030222901889413,0.006448447985402924,159.47041042009369,38.50093649402582,1.1883740925789656,0.00014122329839128802,33.78092088829219,45.698526285552724,2,3,3,5
66,104,333,512,4,32,40,1269,649728,7147008,3208216,2680,7.592027015194864,4.937783195429472,0.0008353552254586349,2.227720328057712,55.111061859732075,22.563775892465006,7.4440829759439335,0.005541437135273829,179.63938611536287,37.305377843296775,1.363738520408129,0.00018597827520449523,33.79069836686627,44.32252650694882,2,3,4,6
67,104,358,512,4,32,40,1269,649728,7147008,3416376,2680,7.520054941426628,5.25816341607565,0.0007844569801450426,2.091985191325545,52.19851439931227,23.266579090018134,6.865482200021687,0.004713484583881464,183.73007074161433,37.54266234096811,1.3269876559808398,0.00017608962391255236,33.7612040083632,41.82961427532214,2,2,4,6
68,104,384,512,4,32,40,1269,649728,7147008,3631128,2680,7.451585894405043,5.5886894208037825,0.0007380626626216426,1.9682611023351422,49.19373253814743,24.111383273187776,6.229179366018705,0.00388026755740332,195.1687046266161,38.774012440904464,1.1515939588749382,0.0001326168646117253,33.83058330305498,43.95098255496096,2,2,3,5
69,104,410,512,4,32,40,1269,649728,7147008,3850360,2680,7.400411309077629,5.9261106185973205,0.0006960388119552457,1.8561921482666557,46.12626710366072,24.680765471482488,5.833936885951414,0.0034034819589264485,219.0771870422177,36.84280591941928,1.4383338589211825,0.00020688042897191005,33.91372059666346,40.947871467456906,2,2,4,6
70,105,77,512,4,32,40,1269,649728,7147008,707096,2680,7.236457789649279,1.0882954097714737,0.0037901501352008778,10.1075497527917,90.10640536571388,9.294243164608066,34.29950415392711,0.11764559852052628,70.77202504780143,38.30085932958438,1.2160656844833102,0.00014788157489778619,33.612466113659075,43.51480560419137,4,5,3,6
71,105,102,512,4,32,40,1269,649728,7147008,914808,2680,7.067538126361656,1.4079861111111112,0.002929576479436122,7.812577065351418,87.20012626262626,14.042023114337097,19.856323707030835,0.03942735911583948,76.04142400342971,37.17590164157863,1.3842193562854952,0.00019160632263154307,33.37072974366659,44.17385731933113,3,5,3,7
72,105,128,512,4,32,40,1269,649728,7147008,1219416,2680,7.507239952718676,1.876809988179669,0.0021977733603626656,5.861008876380168,82.93809101654847,16.582529185955895,14.820864634901037,0.021965802852606024,80.71916641364805,36.35064496371993,1.5221860999844234,0.00023170505229857895,33.1183250061565,43.504746368362994,3,5,3,8
73,105,154,512,4,32,40,1269,649728,7147008,1458072,2680,7.460992907801418,2.2441267730496453,0.00183804366313872,4.901683867463335,79.59884751773049,18.887439212680107,11.366533581616926,0.01291980856620253,93.25595364812762,37.07090278177999,1.4010539565966023,0.0001962952189294994,33.5799390231021,43.664254323352495,3,4,3,7
74,105,179,512,4,32,40,1269,649728,7147008,1678584,2680,7.38972753806939,2.5835180260047284,0.0015965837872873804,4.25776011209448,76.5134724908661,20.708643978119643,9.216537640512074,0.008494456607897586,99.2806328420993,36.3371785604038,1.524547892629327,0.00023242462769205223,33.41636266231452,44.72564992264319,3,4,3,7
75,105,205,512,4,32,40,1269,649728,7147008,1901016,2680,7.3075246497145825,2.9258643617021276,0.0014097724585169194,3.7595727758209296,73.4012330754352,22.359030211988514,7.62164101636999,0.005808941178241336,114.58548510447145,36.5508017314246,1.4875100664857523,0.00022126861978964476,33.014906276016106,43.207469537590754,3,4,3,7
76,105,230,512,4,32,40,1269,649728,7147008,2126296,2680,7.285078973515606,3.2725940701339638,0.001260407770131722,3.361247916564768,70.24914481696396,23.69048558793299,6.538463754549693,0.004275150826956007,120.38325900491327,36.48022828767485,1.4996454204189027,0.00022489363869833873,31.44909041213598,41.78891861225613,2,4,3,8
77,105,256,512,4,32,40,1269,649728,7147008,2424184,2680,7.4621503152088255,3.7310751576044128,0.0011055266431921008,2.948211851905631,66.08113493086897,24.701114587544648,5.820285261276218,0.0033875720522629164,125.36248471401632,36.22457098118,1.544441457675837,0.00023852994161878635,32.98402784603014,44.729627565940156,2,4,3,8
78,105,282,512,4,32,40,1269,649728,7147008,2768184,2680,7.735425783411297,4.260527482269503,0.0009681437361100274,2.5818399354956174,61.26793197936815,25.747745614084696,5.159560619088121,0.0026621065782044995,153.58766989503056,36.3810085679228,1.5168742243613027,0.00023009074125317035,28.23420617215544,44.462857692516465,2,4,3,8
79,105,307,512,4,32,40,1269,649728,7147008,3039352,2680,7.801551915766345,4.6778836682427105,0.0008817669029451015,2.351490712493979,57.47378483415717,26.624614803961443,4.6641151053229,0.002175396971570125,161.48555481201038,36.92118893066659,1.4254124687894625,0.00020318007061804702,31.654176059781893,43.50932118021646,2,3,4,8
80,105,333,512,4,32,40,1269,649728,7147008,3276120,2680,7.752717256263356,5.042294621749409,0.0008180408532044004,2.1815464634995054,54.160957984096285,27.328239287468524,4.3011841389193695,0.0018500184996891559,177.1119249763433,36.70556740449627,1.4612402614001487,0.0002135223101536775,28.27040737137546,45.6120506689702,2,3,3,8
81,105,358,512,4,32,40,1269,649728,7147008,3501400,2680,7.707207980594406,5.389024330181245,0.0007654081224652996,2.0411858113897297,51.00886972562505,28.149556150790612,3.913111226255418,0.0015312439469046184,183.99211053852923,36.72563593945436,1.45786799888311,0.00021253791021674432,27.828914136119632,44.84712089112662,2,3,3,8
82,105,384,512,4,32,40,1269,649728,7147008,3739320,2680,7.673611111111111,5.755208333333333,0.0007167078506252473,1.9113122171945702,47.67992424242424,29.011521509492805,3.543430544814315,0.001255590002592307,195.10857829870656,37.8797869672386,1.276470115520292,0.00016293759558163874,33.47671936926908,44.62723992488819,2,3,4,8
83,105,410,512,4,32,40,1269,649728,7147008,3985432,2680,7.660020373253378,6.134000689519307,0.0006724490594746065,1.7932831371856301,44.2363573680063,29.245568723622448,3.4492253066482146,0.001189715521602247,218.78428356116638,35.68945520610295,1.6425826820470835,0.00026980778673609907,26.786249912938413,42.643571318731134,2,3,4,8
84,106,77,512,4,32,40,1269,649728,7147008,717624,2680,7.344201897393387,1.1044991134751774,0.003734546224763943,9.959265576402126,89.95909896840747,8.70081161227879,36.724798312693785,0.13487108111080362,70.80523197748698,37.58528180213358,1.3204924118403656,0.00017437002097279858,33.84809270091701,42.918854000747615,3,4,3,5
85,106,102,512,4,32,40,1269,649728,7147008,967832,2680,7.477185988658663,1.489595646178093,0.002769075624695195,7.384554344142372,86.45822139838097,12.09637542931468,24.841695183726305,0.061710981960117074,76.0391818578355,37.78553689413303,1.2903964372090548,0.00016651229651618222,33.99268527004733,45.64319641261348,3,4,3,5
86,106,128,512,4,32,40,1269,649728,7147008,1246872,2680,7.676270685579196,1.919067671394799,0.002149378605021205,5.7319500317594745,82.55393026004728,15.543021456285247,16.70509413148555,0.027906016994179293,80.68319455161691,37.51386570215089,1.3313943661741297,0.00017726109582802128,33.4308425900724,45.55610128291172,3,4,3,5
87,106,154,512,4,32,40,1269,649728,7147008,1472952,2680,7.537134260538516,2.2670286643026003,0.0018194754479439927,4.852166262037052,79.39064850634,18.13683240936131,12.392484361655946,0.015357366865388716,93.27099111303687,37.6604735244967,1.3091105528992655,0.0001713770439712221,33.65639845837182,44.736574473977676,3,3,3,5
88,106,179,512,4,32,40,1269,649728,7147008,1687960,2680,7.431004045766913,2.5979486800630416,0.0015877153487049455,4.234109813028745,76.38228472669962,20.13354346899258,9.84742828173275,0.009697184376387,99.38673780229874,37.48647933265115,1.335598840554299,0.00017838242628899874,33.60890536472337,43.66391393061631,2,3,3,5
89,106,205,512,4,32,40,1269,649728,7147008,1955192,2680,7.515777739337677,3.0092469464144997,0.001370709372787941,3.655399572011342,72.64320957805,21.854426492944018,8.077531779711823,0.006524651965225442,114.51692049019039,37.56704157103559,1.323268338737098,0.0001751039096304039,33.2469233711513,45.41780931252305,2,3,3,6
90,106,230,512,4,32,40,1269,649728,7147008,2228664,2680,7.635810463562545,3.430149231678487,0.0012025141519762513,3.2068575613013,68.81682516655921,23.278057318568585,6.856415595293624,0.004701043481538562,120.35355559154414,37.68897333574896,1.3048221883206708,0.0001702560943133944,34.23771653960189,46.00795739920607,2,3,4,5
91,106,256,512,4,32,40,1269,649728,7147008,2518872,2680,7.753619976359338,3.876809988179669,0.0010639683159763577,2.837384352996103,64.75627283473028,24.361430969618368,6.052411551987686,0.003663168559463399,125.47637352650054,37.700864957376645,1.3030370130922377,0.00016979054574883405,33.302152163122564,46.92563913753525,2,3,4,6
92,106,282,512,4,32,40,1269,649728,7147008,2819992,2680,7.880198290942217,4.340265464933018,0.000950357305978173,2.534407189807631,60.54304122788165,25.36998925311728,5.388905121316489,0.002904029840655108,153.67255813768134,38.05876845104999,1.2504363136537406,0.0001563590974503956,33.639693465952675,45.68993810384336,2,3,4,6
93,106,307,512,4,32,40,1269,649728,7147008,3077336,2680,7.8990510366212074,4.736345055161545,0.0008708831274842916,2.3224659250728554,56.942317680349596,26.005197487327067,5.008874214961953,0.002508882090131072,159.90372827718966,36.358600346120454,1.5207925721887552,0.00023128100476244904,33.68035551136554,42.94472636787765,2,2,4,6
94,106,333,512,4,32,40,1269,649728,7147008,3309144,2680,7.830866327320228,5.093122044917258,0.0008098771162572556,2.159775458547588,53.698890500752206,26.686520928789264,4.630991176861819,0.002144607928017202,176.93618930364028,35.86454286003891,1.6098034618496657,0.00025914671857831683,33.37286965477299,41.65757901481614,2,2,4,6
95,106,358,512,4,32,40,1269,649728,7147008,3534872,2680,7.78088584245722,5.440541272655635,0.0007581604086371444,2.021857651422739,50.54053388494878,27.459936770405363,4.236460500019775,0.0017947597568227802,184.56945033208467,37.10473737742883,1.3956069744185629,0.0001947718827045735,33.81529784782197,42.464194408094684,2,2,4,6
96,106,384,512,4,32,40,1269,649728,7147008,3755032,2680,7.705854347255056,5.779390760441292,0.0007137089643976403,1.903314805306586,47.46008399598825,27.992711156217034,3.984413860395195,0.001587555381090934,193.62052991241217,36.356425057781436,1.521173486150108,0.00023139687749660734,33.91678481820145,41.374452458960846,2,2,4,6
97,106,410,512,4,32,40,1269,649728,7147008,3985528,2680,7.660204885736801,6.134148443656422,0.0006724328620950599,1.793239942110556,44.23501414857798,28.54146202299479,3.740476226720319,0.0013991162402659878,219.06898179720156,36.635985053028364,1.4729932183159646,0.00021697090212048232,33.77390198193494,42.90328753640108,2,2,4,6
98,107,77,512,4,32,40,1269,649728,7147008,769240,2680,7.8724427660597875,1.1839415878644601,0.00348395819250169,9.290998908013103,89.23689465577763,9.391301342463784,33.918366835949094,0.11504556088180112,70.77387492870912,37.38850141378264,1.3507498541297018,0.0001824525168431411,33.488251385979346,44.993224659923385,4,5,3,5
99,107,102,512,4,32,40,1269,649728,7147008,1054232,2680,8.144687031629042,1.6225743695823482,0.002542134938040204,6.779350275840612,85.24932391288775,13.39419379710312,21.39391717564275,0.045769969211826175,76.0757494349964,38.51941540587593,1.185848557697259,0.00014062368017926695,33.30409768681303,45.84940859236505,4,5,3,5
100,107,128,512,4,32,40,1269,649728,7147008,1304088,2680,8.028516548463356,2.007129137115839,0.002055076037813399,5.480464508530099,81.7533714807651,16.914888445475736,14.264467955551877,0.02034750460549663,80.72342245280743,37.55888415318844,1.3245116797931653,0.00017543311899085123,33.511694185831516,44.58033478140349,4,4,3,5
101,107,154,512,4,32,40,1269,649728,7147008,1540760,2680,7.884109586237246,2.3713923364854215,0.001739401334406397,4.6386250941094005,78.44188785013253,19.82672682155154,10.20149119180361,0.010407042253644664,93.25713522476144,37.870804335294096,1.2777908774284588,0.00016327495264393906,33.77452162123406,46.27365185245863,3,4,4,6
102,107,179,512,4,32,40,1269,649728,7147008,1789496,2680,7.878001857795035,2.754223305752561,0.0014976283825166416,3.9938664294304096,74.96160631134035,21.616872394266796,8.301496330843449,0.0068914841331007256,99.36622573831119,38.52881271217628,1.1845662761459206,0.00014031972625822134,34.609584371484154,46.00456988660627,3,4,4,5
103,107,205,512,4,32,40,1269,649728,7147008,2122968,2680,8.160710373061178,3.267471926713948,0.0012623836063473401,3.366517064788541,70.29570975714593,23.417770801565098,6.74701164803795,0.0045522166178759765,114.52997841895558,37.25505162842167,1.371662983212764,0.00018814593395161396,33.86116590886308,44.28248084111809,3,4,4,6
104,107,230,512,4,32,40,1269,649728,7147008,2410424,2680,8.258553465583994,3.709897064617809,0.0011118375854206562,2.9650418349634755,66.27366304892901,25.28045982212602,5.444738281910932,0.0029645174958506403,120.43245555227622,37.037878265578065,1.406391026517202,0.00019779357194681088,33.74924445484762,44.77666031560486,3,4,3,6
105,107,256,512,4,32,40,1269,649728,7147008,2706584,2680,8.331437155240346,4.165718577620173,0.0009901780251416546,2.6406008459371666,62.129831112543876,26.65161083688699,4.649641385016231,0.002161916500925565,125.44407818187028,37.20380534433477,1.3797796417977415,0.00019037918599195034,33.79707451625079,44.35505529876373,3,3,4,5
106,107,282,512,4,32,40,1269,649728,7147008,2938392,2680,8.211055781902319,4.522495567375887,0.0009120634687271133,2.4322854132464284,58.886403932946486,28.18030647995322,3.899282278909258,0.0015204402290615777,153.69096380053088,37.66350764490352,1.308653339470575,0.00017125735629074882,34.13426123523683,44.22662105226121,3,3,4,5
107,107,307,512,4,32,40,1269,649728,7147008,3179352,2680,8.160910512008995,4.893358451536643,0.0008429390643124763,2.247944864236486,55.5149231678487,29.033411867995774,3.5345115615771037,0.0012492771978922215,159.63562497892417,36.83664942069266,1.4393537014357356,0.00020717390778367525,33.62502669770231,44.624231142768465,3,3,4,6
108,107,333,512,4,32,40,1269,649728,7147008,3406168,2680,8.060467086471814,5.2424522261623325,0.0007868079319634264,2.0982546955992776,52.34134339852425,30.244028109840404,3.0746705954747773,0.0009453599270677222,177.3316344190389,36.91238988885143,1.4268571819290652,0.00020359214176225536,33.708974126093906,42.69938602545691,3,3,4,6
109,107,358,512,4,32,40,1269,649728,7147008,3629304,2680,7.9887475732002065,5.585882092198582,0.0007384335949812967,1.969250302537346,49.219253707285624,31.033866787820365,2.8074152882719954,0.0007881580600823332,186.26901724073105,36.642096286207675,1.4719572117129023,0.00021666580331136217,33.402279034735585,42.02009908172228,3,3,4,6
110,107,384,512,4,32,40,1269,649728,7147008,3867640,2680,7.936941817704229,5.952706363278172,0.0006929290213153241,1.8478989771540268,45.884487606562075,31.741812804286276,2.587672793866987,0.0006696050488119375,193.8554664349649,36.22710051060717,1.5439917465383346,0.00023839105133784968,33.60380275223515,42.10961909909146,3,3,4,6
111,107,410,512,4,32,40,1269,649728,7147008,4096632,2680,7.873747333218013,6.305149231678487,0.0006541959346116517,1.744605812774982,42.68046153019557,32.41729893440354,2.3940601255331684,0.0005731523884667891,218.5992235247977,36.32346040481488,1.5269576065596888,0.00023315995322304936,33.36088310282697,41.342214341363594,3,3,4,6
112,108,77,512,4,32,40,1269,649728,7147008,746232,2680,7.636977679530871,1.1485298463356974,0.003591376408409181,9.57746116489242,89.55881957876639,12.720573992076663,23.119120063990593,0.05344937125332124,70.74144749040715,39.48033034593344,1.0616551790503634,0.00011271117192044594,33.71706284514033,46.05634783290139,4,5,3,5
113,108,102,512,4,32,40,1269,649728,7147008,953624,2680,7.367419150481312,1.4677280338849488,0.0028103319547326828,7.494576478779896,86.6570178737732,16.57157853685863,14.839561676374194,0.02202125907469137,75.9911887627095,39.3414141007451,1.0787710792921872,0.00011637470415172304,33.435545168183936,45.82912067964694,4,5,3,6
114,108,128,512,4,32,40,1269,649728,7147008,1225048,2680,7.54191292356186,1.885478230890465,0.0021876693811181277,5.834063644853099,82.85928881008668,19.022140926704708,11.191619947306009,0.012525235704493773,80.65648543229327,38.02512827574165,1.2552886041880322,0.00015757494798043382,33.42544953579678,43.80380272679913,3,5,3,6
115,108,154,512,4,32,40,1269,649728,7147008,1504280,2680,7.6974404633979105,2.3152457643814026,0.0017815832158906586,4.751115483819501,78.95231123289634,20.736402003967655,9.187130804200363,0.00844033724134872,93.19531906745397,38.86520808194775,1.1395662957643125,0.00012986113424419968,34.2167069460033,46.347207621289556,3,4,3,6
116,108,179,512,4,32,40,1269,649728,7147008,1730392,2680,7.617804896302459,2.6632560086682426,0.0015487820100878876,4.130282618042617,75.78858173937961,22.057873083988923,7.890533096492858,0.006226051254684917,99.33857048861682,38.16826340727171,1.2347721617348741,0.00015246622913954138,33.81757394711574,42.83944782733961,3,4,3,7
117,108,205,512,4,32,40,1269,649728,7147008,1947320,2680,7.485517692056353,2.997131107171001,0.0013762504364973399,3.6701764476305896,72.75335357117272,22.95069474834246,7.119758497218134,0.005069096105870983,114.43397984467447,37.76010620688647,1.2941800167416155,0.0001674901915733328,33.36479138539976,44.34733497379273,3,4,4,7
118,108,230,512,4,32,40,1269,649728,7147008,2152472,2680,7.374762736834892,3.312881698187549,0.0012450800753738029,3.3203721116929743,69.88289365284047,23.533485997742897,6.657722664162474,0.004432527107290267,120.36748132738285,36.4076293604819,1.5122323765654673,0.00022868467607328413,33.25755586395671,39.806856456415034,3,4,4,7
119,108,256,512,4,32,40,1269,649728,7147008,2421624,2680,7.454270094562648,3.727135047281324,0.0011066953416385037,2.9513285299451937,66.11695411562432,24.337365480677693,6.069203868456667,0.003683523559688938,125.32438167789951,37.12530645476262,1.3923059441262007,0.0001938515842049151,33.335463298620525,43.017379103794354,2,4,3,7
120,108,282,512,4,32,40,1269,649728,7147008,2734904,2680,7.642428002168458,4.209306048069346,0.0009799247066807463,2.613257357479458,61.73358138118776,24.989418928212434,5.630267817037343,0.0031699915691566446,153.62897042930126,36.7814115631829,1.4485364295488699,0.0002098257787730188,33.68373933690071,42.13396611617797,2,4,4,7
121,108,307,512,4,32,40,1269,649728,7147008,3010552,2680,7.727626718825,4.633557427107959,0.0008902021954777728,2.3739859002601515,57.87675066265492,25.497948612790562,5.310098405020737,0.0028197145071003774,159.40049154893495,37.01442709590147,1.4101932943011666,0.00019886451272919768,33.72030528842312,44.9692206582196,2,4,3,6
122,108,333,512,4,32,40,1269,649728,7147008,3291000,2680,7.787929773745376,5.065196513002364,0.0008143421452446065,2.171682771194166,53.95275897270578,26.25313586131907,4.867917473163427,0.0023696620525529804,177.0182903802488,37.395709603176634,1.349629367653347,0.00018214994300323734,34.26555433596449,42.27466282329991,2,3,4,8
123,108,358,512,4,32,40,1269,649728,7147008,3532376,2680,7.77539169979441,5.4366996650906225,0.0007586961297438324,2.0232863092717195,50.57545759008525,26.425342747993163,4.772356325720665,0.0022775384899646044,184.18141879118048,36.36451017172614,1.519758186260359,0.00023096649447053763,33.692355958663605,44.47233759315061,2,3,4,7
124,108,384,512,4,32,40,1269,649728,7147008,3792376,2680,7.782489493039138,5.836867119779354,0.0007066809831092698,1.8845726267648566,46.93757163836951,26.902152903191613,4.517439602725584,0.0020407260564273477,192.59622408240102,36.71541812479846,1.459583999292354,0.0002130385450990263,34.12281344487097,41.87277608815386,2,3,4,7
125,108,410,512,4,32,40,1269,649728,7147008,3983224,2680,7.655776586134656,6.130602344365642,0.0006728218146908133,1.794277198570806,44.267251414857796,27.815993066418805,4.066308709366587,0.0016534866519870555,218.5525128180161,38.03237464589636,1.2542417922971112,0.00015731224735446702,33.614477246613454,43.95167470994489,2,3,4,7
126,109,77,512,4,32,40,1269,649728,7147008,710424,2680,7.270516717325228,1.0934175531914894,0.003772395076742903,10.060200668896321,90.05984042553192,11.13296740517348,27.755664530624813,0.07703769135365843,70.76264309533872,38.50181137478981,1.1882544003749134,0.00014119485200103453,33.37547108759298,44.184410424857894,4,5,3,5
127,109,102,512,4,32,40,1269,649728,7147008,925176,2680,7.147638251518101,1.4239435579196218,0.0028967461326277377,7.725025292484889,87.05505856436707,15.750505855182451,16.310779145552154,0.026604151633497906,76.03350166138262,37.63096815005433,1.313565073692003,0.00017254532028234776,33.36381185509509,45.332316910366735,3,4,3,6
128,109,128,512,4,32,40,1269,649728,7147008,1229560,2680,7.5696907013396375,1.8924226753349094,0.0021796414977715605,5.812654933472136,82.79615749695537,18.46094486013817,11.93858228256558,0.014252974691758877,80.71681734756567,37.17232688700463,1.3847891612298466,0.0001917641021059662,33.75149119219944,43.72700130361961,3,4,3,6
129,109,154,512,4,32,40,1269,649728,7147008,1492728,2680,7.638328574498788,2.2974660165484635,0.0017953706234491481,4.7878836599836,79.11394530410487,21.183405257983356,8.726291915694949,0.0076148170597923025,93.23933652043343,37.634398448643,1.3130464128562325,0.000172409088231462,34.60539580721635,44.33854764372167,3,4,3,6
130,109,179,512,4,32,40,1269,649728,7147008,1722840,2680,7.584558289419813,2.65163268321513,0.0015555710338743007,4.148387546144738,75.8942483344079,23.00452224351922,7.075772936371891,0.005006656264709289,99.37756374408491,37.24273963169617,1.3736086543622708,0.00018868007353389283,33.53280420380198,45.28659641388024,3,4,3,6
131,109,205,512,4,32,40,1269,649728,7147008,1960728,2680,7.537058179092429,3.01776743498818,0.0013668392556234214,3.6450787666621784,72.56575059101655,25.01198655622021,5.615658275328957,0.003153561786527059,114.57149060885422,39.59470780295044,1.0477667439526699,0.00010978151497331796,33.785205029858865,46.38710095688883,3,3,3,7
132,109,230,512,4,32,40,1269,649728,7147008,2160376,2680,7.4018432863946275,3.3250467888100865,0.0012405247975352438,3.308224123948794,69.7723019199083,26.08403963484868,4.96361419917413,0.002463746591824304,120.47980998805724,36.831443192553884,1.4402166930572766,0.00020742241229608377,33.214653370276224,45.553203058823,3,3,3,6
133,109,256,512,4,32,40,1269,649728,7147008,2387416,2680,7.348970646178093,3.6744853230890464,0.0011225525840490305,2.9936165293354824,66.59558797191777,27.3756538530064,4.277768787548251,0.0018299305799722029,125.40081548015587,37.271141889987554,1.3691243846999654,0.0001874501580780059,33.27025844939506,43.08434900553076,2,3,3,6
134,109,282,512,4,32,40,1269,649728,7147008,2680056,2680,7.4891605050047785,4.124889184397163,0.0009999791049142258,2.66673830696075,62.50100741457124,28.0678103706187,3.9501126534597524,0.0015603389975022844,153.61558056646027,36.02349643003653,1.5806116495913274,0.00024983331868238173,33.01399857558956,46.13897259916827,2,3,3,6
135,109,307,512,4,32,40,1269,649728,7147008,3074520,2680,7.891822795142499,4.732010933806147,0.0008716807826912819,2.324593107216736,56.98171878358048,29.46273421571789,3.364056561693366,0.0011316876550272195,159.42320694006048,37.507636353009204,1.332349558498176,0.00017751553460302843,33.181526532027476,45.95751755648345,2,3,4,6
136,109,333,512,4,32,40,1269,649728,7147008,3364088,2680,7.9608876015495404,5.177686662726557,0.0007966497903740924,2.1245009048514785,52.9301212479404,30.361966065355006,3.0332045356673802,0.0009200329755193169,179.2284833432641,38.85642146113253,1.1407196610025692,0.00013012413449978164,33.83014620529061,46.194024283323486,2,3,3,6
137,109,358,512,4,32,40,1269,649728,7147008,3596664,2680,7.916901092224996,5.535645685579196,0.0007451349361519453,1.9871213991632246,49.6759483129164,31.358086286070286,2.704554177904556,0.0007314613301220989,183.8347804604564,39.54982293975534,1.0531951560982526,0.0001109220036828823,34.67971088446109,44.80673479680484,2,3,4,6
138,109,384,512,4,32,40,1269,649728,7147008,3857592,2680,7.916321907013397,5.937241430260047,0.0006947339169098236,1.8527122619499419,46.02507790672684,31.467781806152594,2.6706126984622665,0.0007132172185187909,192.547676240094,37.57144135991266,1.3225982142900696,0.00017492660364432813,33.27056545299829,44.457985118197136,2,3,4,7
139,109,410,512,4,32,40,1269,649728,7147008,4085528,2680,7.85240538930212,6.288059003152088,0.0006559739646870613,1.7493474527649793,42.83582724407192,32.2088452439849,2.452210444197934,0.0006013336062633428,218.61193403042853,37.72436525152196,1.299516318375964,0.000168874266172542,33.776509214082296,43.98741028416336,2,3,4,7
140,111,77,512,4,32,40,1269,649728,7147008,737656,2680,7.549210442827464,1.1353304767533492,0.00363312980576312,9.68880887568189,89.67881384769683,9.811023742741515,32.31832268345068,0.10444739810716427,70.67319506080821,38.204403781105846,1.2296451776752524,0.00015120272629800028,33.81761453833245,44.37479495120282,3,5,3,5
141,111,102,512,4,32,40,1269,649728,7147008,987736,2680,7.630958451150358,1.5202300039401104,0.002713275612106879,7.235747203706254,86.17972723690809,13.515265914521425,21.097777324382626,0.044511620802923375,75.98710384964943,38.03429310514096,1.2539647975216455,0.00015724277134235014,33.25681770508615,46.251578741293926,3,5,3,6
142,111,128,512,4,32,40,1269,649728,7147008,1259448,2680,7.753693853427896,1.938423463356974,0.002127916357007197,5.674714636888542,82.3779685149366,16.450535408417128,15.047807594940327,0.022643651341434375,80.6978946866002,36.906485900806295,1.4278273774740657,0.00020386910198644682,33.62781286242217,44.68104317943978,3,4,3,6
143,111,154,512,4,32,40,1269,649728,7147008,1499768,2680,7.674352440309887,2.3083013199369584,0.0017869430471912989,4.765409049933056,79.01544254602766,18.930804028355112,11.30992691677999,0.012791444686290449,93.2228369442746,37.04747249430876,1.4048384178216609,0.00019735709801876674,33.53795685401814,43.791875383605046,2,4,3,7
144,111,179,512,4,32,40,1269,649728,7147008,1721464,2680,7.578500644945433,2.64951487391647,0.0015568144323668692,4.151703433821445,75.91350114621392,20.500887386352247,9.439644320551261,0.008910688489851569,99.30489769298583,37.18422302338918,1.3828938614429374,0.00019123954320165583,33.618855841700096,42.69247850766624,2,4,3,6
145,111,205,512,4,32,40,1269,649728,7147008,1972888,2680,7.583801341559515,3.0364829590228526,0.0013584146692564403,3.622612130034751,72.39560946342861,22.230579816478798,7.735190416858696,0.0059833170785062615,114.51785979792476,37.731627953713684,1.2984301826182187,0.00016859209391339807,33.43550792105023,43.92160734200166,2,4,3,7
146,111,230,512,4,32,40,1269,649728,7147008,2238040,2680,7.667934354335834,3.444579885736801,0.001197476363246412,3.193422816392915,68.68563740239271,23.505460356612723,6.679238973482747,0.004461223326489086,120.31411084113643,36.791376458253545,1.446875547671656,0.00020934488504501542,33.22081623352105,44.87700485722138,2,4,3,6
147,111,256,512,4,32,40,1269,649728,7147008,2522360,2680,7.7643567769897555,3.8821783884948777,0.001062497026594142,2.8334607272554275,64.7074691955011,24.504770250740002,5.953350984266246,0.0035442387941863876,125.39203156391159,37.72275792563064,1.2997568164233924,0.00016893677818390716,34.132057517484874,44.81896480969765,2,4,3,7
148,111,282,512,4,32,40,1269,649728,7147008,2791512,2680,7.800613651224787,4.2964317375886525,0.000960053189812546,2.5602641149312633,60.94152965828498,25.35209996957832,5.400015439246152,0.0029160166744096813,153.64761000568978,37.39218772691531,1.3501767141668124,0.00018229771594782906,33.72487517578277,44.592474904825416,2,3,3,6
149,111,307,512,4,32,40,1269,649728,7147008,3036760,2680,7.794898648041624,4.673894306540583,0.0008825195273910352,2.353497806873115,57.51005175872197,26.00836436884053,5.007048308759421,0.0025070532766250575,159.3208508847747,37.90825633574072,1.2722931331837322,0.0001618729816746478,34.10923431528578,44.178191369029996,2,3,4,8
150,111,333,512,4,32,40,1269,649728,7147008,3273752,2680,7.747113543803851,5.038650019700552,0.0008186325659365767,2.1831244394810603,54.19409072999498,26.40348737580636,4.784379614028451,0.0022890288291131026,177.21973723964766,37.0143255782338,1.4102097762479522,0.0001988691613025299,33.72516307232714,43.17156787692151,2,3,4,8
151,111,358,512,4,32,40,1269,649728,7147008,3478488,2680,7.656774568458866,5.353760342789598,0.0007704496896352668,2.05463063261969,51.32945142918547,27.156777803657324,4.386934092757536,0.001924519073419839,183.85787742072716,37.60189686769289,1.3179688825393288,0.0001737041975341967,33.96007736660176,43.054947943096465,2,3,3,7
152,111,384,512,4,32,40,1269,649728,7147008,3696728,2680,7.586206330443919,5.68965474783294,0.0007249654288873837,1.9333334776050606,48.27586592879146,27.516600318796492,4.20891334180313,0.0017714951518808392,194.2996849764604,36.95705330175058,1.4195390202879328,0.00020150910301200244,33.561128517090225,46.14728761507243,1,3,3,8
153,111,410,512,4,32,40,1269,649728,7147008,3921208,2680,7.536581521843587,6.03515317178881,0.0006834628512438004,1.8226546513217357,45.13497116555627,27.90002784610082,4.02715743256653,0.0016217996986675842,218.75212304084562,36.80300485043316,1.4449398128475959,0.0002087851062752045,33.44111549256242,44.18177562046157,1,3,3,7
154,112,77,512,4,32,40,1269,649728,7147008,583544,2680,5.972020099679674,0.8981358353033885,0.0045926271198058755,12.247590584428938,91.8351287699692,15.61175599154623,16.573422447291563,0.02746783316163879,70.78369896253571,37.2549778902854,1.3716746278807839,0.0001881491284771887,33.60987864874221,41.559705064781944,6,6,3,5
155,112,102,512,4,32,40,1269,649728,7147008,875000,2680,6.759993201378266,1.3467173955870764,0.0030628571428571428,8.168009142857143,87.75711458557203,19.164736569944093,11.009387843379999,0.01212066206859633,76.12736006057821,41.37992704670991,0.8531072792849419,7.27792029968956e-05,34.68429230006686,45.858110984738005,5,6,3,5
156,112,128,512,4,32,40,1269,649728,7147008,1061016,2680,6.532062647754137,1.6330156619385343,0.002525880853823128,6.736003981089823,85.15440307328605,21.732274700172344,8.191930610920558,0.006710772713413725,80.78500327235088,37.22013319754612,1.3771883496392838,0.00018966477503821745,34.11764117644716,43.81260019921241,5,5,2,5
157,112,154,512,4,32,40,1269,649728,7147008,1248248,2680,6.387317961786047,1.9211854806934594,0.0021470092481622243,5.7256314450333585,82.53467744824128,24.92090997490825,5.674851498640081,0.003220393953161757,93.45081125781871,39.08174211388977,1.1115087715279672,0.00012354517491836112,34.39608840332125,42.231164102086254,5,5,3,5
158,112,179,512,4,32,40,1269,649728,7147008,1439448,2680,6.33696527860322,2.2154624704491725,0.0018618248106218496,4.965103289594344,79.8594320868257,26.797952998569308,4.571959241681731,0.0020902811307598993,99.3931268856395,39.265342171148056,1.0882605634850993,0.00011843110540369058,35.37241623633926,42.04871155866322,4,5,3,5
159,112,205,512,4,32,40,1269,649728,7147008,1800472,2680,6.921032501105153,2.7711165287628052,0.0014884985714856992,3.9695191038794273,74.80803155670176,27.91954798895343,4.018117204642042,0.0016145265870240377,114.59467077162117,38.42165180200699,1.1992712151751093,0.00014382514475475835,33.880738709251716,43.93020131063336,4,5,3,5
160,112,230,512,4,32,40,1269,649728,7147008,2093208,2680,7.17171343406311,3.2216681442080377,0.0012803314338565494,3.4143802240388914,70.71210777992692,27.697854380850305,4.1219932945689,0.001699082872047097,120.3728724818211,36.582760622304384,1.482046973682629,0.00021964632322018395,33.6561038842643,42.2925169326908,4,4,3,6
161,112,256,512,4,32,40,1269,649728,7147008,2265240,2680,6.972887115839243,3.4864435579196216,0.001183097596722643,3.1550776076707105,68.30505856436707,29.031335014756024,3.5353567875428573,0.0012498747615225353,125.33326767315157,36.43639676708327,1.5072321929798018,0.00022717488835547023,33.702444016379616,41.493180990250075,4,4,3,6
162,112,282,512,4,32,40,1269,649728,7147008,2498392,2680,6.981517808739779,3.8452891055949565,0.0010726899541785276,2.860643165684168,65.04282631277312,31.152520478164416,2.7693253175973287,0.0007669162714685546,154.12376615218818,38.94504759196705,1.1291395521888798,0.00012749561283173042,33.72091432343778,43.25166403504691,4,4,3,6
163,112,307,512,4,32,40,1269,649728,7147008,2688696,2680,6.901471573451613,4.138187056737588,0.0009967657184002951,2.658168866989797,62.380117666021924,31.031848358127316,2.8080677521030357,0.0007885244500400995,161.56412008707412,37.441687951821805,1.3425040434378386,0.00018023171066469462,33.553101250872174,40.29945680113681,4,4,3,6
164,112,333,512,4,32,40,1269,649728,7147008,2857272,2680,6.761541683527499,4.397643321513002,0.000937957604316285,2.501339739443777,60.0214243498818,32.42818088080865,2.391062652334136,0.0005717180607387152,179.10444441391155,38.12617607445264,1.2407697484399334,0.00015395095686436956,33.42265615936879,41.80906708313228,4,4,3,5
165,112,358,512,4,32,40,1269,649728,7147008,3087672,2680,6.796518615370393,4.752253250591017,0.0008679678411437484,2.314691456864589,56.79769772189985,31.76165746065555,2.5817674850496,0.0006665523346859339,186.79780142288655,36.82785819822099,1.4408112475084378,0.00020759370509468208,33.329846215234824,40.50920620365066,4,4,3,6
166,112,384,512,4,32,40,1269,649728,7147008,3272248,2680,6.715113606514316,5.036335204885737,0.0008190088281817271,2.1841278533900854,54.215134501038754,31.747928235440725,2.585851545155998,0.0006686628213585661,194.11917680036277,35.66820984527196,1.6466052953597894,0.00027113089987068997,33.72339474175447,39.494902763368344,3,4,4,7
167,112,410,512,4,32,40,1269,649728,7147008,3580600,2680,6.881931230659824,5.5109214933018125,0.0007484779087303803,1.9960364184773502,49.90071369725625,32.784662788730095,2.294916352600767,0.0005266641065434408,218.90037705842406,36.88800654428944,1.4308683346766886,0.00020473841911804397,33.81643320052227,43.87876492765329,3,4,3,6
168,113,77,512,4,32,40,1269,649728,7147008,756184,2680,7.738826972869526,1.1638470252167061,0.003544110957121547,9.451413941580356,89.41957249802995,7.153029183561795,43.88827796121868,0.19261809424011928,70.74394895043224,38.41493180463978,1.2001994122952042,0.00014404786292737532,33.72241865774457,46.09261761933731,3,4,3,5
169,113,102,512,4,32,40,1269,649728,7147008,1013464,2680,7.829725428390426,1.5598281126871552,0.002644395854218798,7.052059076592755,85.81974443011677,12.193701385770865,24.564896051030736,0.06034341179979456,76.00271127303131,37.48836316119034,1.335309202245127,0.00017830506656005176,33.6031055474854,45.604371617039334,3,4,3,4
170,113,128,512,4,32,40,1269,649728,7147008,1277080,2680,7.8622438928289995,1.9655609732072499,0.0020985372881886805,5.596366711560748,82.1312638799341,15.920327954311832,15.994976350256252,0.025583926844525675,80.67590712453239,37.911259327512504,1.2718533365044655,0.0001617610909577541,33.69329988482824,45.605667973961985,3,4,3,5
171,113,154,512,4,32,40,1269,649728,7147008,1521464,2680,7.785371444945913,2.3416937549251378,0.0017614613293512038,4.69745455692675,78.71187495522602,18.706155635901922,11.606257940377986,0.013470522337858707,93.20025849761441,38.0419514748493,1.2528596610270706,0.00015696573302288662,33.85029346270108,44.89051773067195,3,4,3,5
172,113,179,512,4,32,40,1269,649728,7147008,1772760,2680,7.804323995932221,2.7284648345153664,0.0015117669622509533,4.031571109456441,75.19577423167848,21.13083617389817,8.779265667253881,0.007707550565622273,99.3836043565534,38.43343759892695,1.1976450395583749,0.00014343536407787814,33.61574172889706,45.66499776753043,2,3,4,6
173,113,205,512,4,32,40,1269,649728,7147008,2037496,2680,7.832155144246478,3.1359214933018125,0.001315340005575471,3.5077408740925136,71.49162278816534,23.163335502265028,6.9475746983709525,0.004826879418944423,114.59272758103907,38.38660204522307,1.2041203543636683,0.0001449905827792886,33.38529035055131,44.92872552473935,2,3,3,5
174,113,230,512,4,32,40,1269,649728,7147008,2323096,2680,7.95935176619728,3.575490051221434,0.0011536329105641782,3.0765013585318903,67.49554498889606,24.6494899465055,5.854981169775918,0.0034280804498430582,120.4306871718727,38.49548993814824,1.189119505648128,0.00014140051987128488,34.313328279700585,45.709661680315335,2,3,4,6
175,113,256,512,4,32,40,1269,649728,7147008,2575800,2680,7.928856382978723,3.9644281914893615,0.001040453451354919,2.7746750524109016,63.959743713733076,25.927895032604077,5.053651019615738,0.002553938862806319,125.40451199002564,38.48717063793384,1.1902589837723463,0.00014167164484507787,33.99209079972756,44.27854066260592,2,3,3,5
176,113,282,512,4,32,40,1269,649728,7147008,2853240,2680,7.973106651241554,4.391437647754137,0.0009392830606608627,2.5048744585103253,60.07783956587148,27.140810944774174,4.395005802241595,0.0019316076001737285,153.61070460244082,38.10785407274692,1.243389788544848,0.00015460181662576016,34.35175204133623,44.16287106781733,2,3,4,5
177,113,307,512,4,32,40,1269,649728,7147008,3131832,2680,8.038933937055775,4.820220153664303,0.0008557291706579407,2.282053443479727,56.17981678486998,28.087732590452585,3.9410629376272768,0.0015531977078339341,159.43639854271896,38.388271182399656,1.2038889849780907,0.00014493486881515775,33.72661338237253,46.93638416031443,2,3,4,5
178,113,333,512,4,32,40,1269,649728,7147008,3368376,2680,7.971034864651886,5.18428634751773,0.0007956356416267068,2.1217963790265695,52.87012411347518,28.72108610359822,3.6639175731613447,0.0013424291982920519,178.47069289721549,37.160314393092094,1.3867056349849254,0.0001922952518098945,33.7749194258064,42.32893577596729,2,3,4,6
179,113,358,512,4,32,40,1269,649728,7147008,3609016,2680,7.944090054633262,5.554656717888101,0.000742584682362173,1.9803203975820556,49.50312074647181,29.350898480935616,3.4076507374710823,0.0011612083548587213,185.3628790504299,37.42560830049396,1.3449916401606024,0.00018090025121019073,33.81340705924541,44.466630999091365,2,3,4,5
180,113,384,512,4,32,40,1269,649728,7147008,3872952,2680,7.947842789598108,5.960882092198582,0.0006919786250901122,1.845364466174639,45.81016279819471,29.986134340505032,3.1673297714893653,0.0010031977881362875,192.57134213205427,36.95421170783471,1.4200034992884576,0.00020164099379914647,33.89596358910919,45.782005850671744,2,2,4,5
181,113,410,512,4,32,40,1269,649728,7147008,4096888,2680,7.87423936650714,6.305543242710796,0.0006541550562280443,1.744496798545628,42.67687961172004,30.583766087094755,2.956730189400635,0.0008742253412913117,218.53316800831817,37.12777072785952,1.3919109891403296,0.00019374162016896107,33.69052860027385,41.84734644843049,2,2,4,6
182,114,77,512,4,32,40,1269,649728,7147008,705048,2680,7.215498449541003,1.0851433215130024,0.0038011596373580237,10.136909827416005,90.13506071351816,10.22398536431845,30.81773609380593,0.09497328579474687,70.70485175587237,37.25623719021312,1.3714757738059302,0.00018809457981365751,33.50049848572797,43.68331982227007,3,5,3,4
183,114,102,512,4,32,40,1269,649728,7147008,963928,2680,7.447024830420742,1.4835869779353823,0.002780290644114498,7.414462490974429,86.51284565513289,13.213096571798989,21.84465405786873,0.047718891090796085,76.06266041938215,37.88351825178331,1.275921887239579,0.0001627976662337009,32.91406704464175,45.889862185063215,2,5,3,4
184,114,128,512,4,32,40,1269,649728,7147008,1197272,2680,7.370912135539795,1.8427280338849488,0.0022384220127088916,5.9694104597785635,83.24792696468228,16.147478584278893,15.58210300046694,0.024280193391716085,80.69701543450356,37.41117527398086,1.347228421665425,0.00018150244201431122,34.23104234527117,44.76929081415174,2,4,3,6
185,114,154,512,4,32,40,1269,649728,7147008,1402072,2680,7.1744394297585785,2.1579368597320725,0.0019114567582834549,5.097461471308178,80.38239218425389,18.179288811798866,12.332058022197877,0.015207965506285502,93.2116941830609,37.576958572968536,1.3217583764136966,0.00017470452056197715,33.17856779563637,44.35617237362535,2,4,3,6
186,114,179,512,4,32,40,1269,649728,7147008,1657496,2680,7.296890614613186,2.5510613672182822,0.0016168968130239833,4.311930767857056,76.80853302528834,19.72194130715574,10.325306080932501,0.010661194566494166,99.35193369886838,36.24786841331645,1.5403044827018826,0.00023725378994315143,33.470717634221195,42.56008437989328,2,4,3,6
187,114,205,512,4,32,40,1269,649728,7147008,1962968,2680,7.545668761652156,3.0212150315208826,0.0013652795155091677,3.640919261037368,72.5344088043556,20.819143546945583,9.100029970537925,0.008281054546468845,114.57718424452469,37.63041399670918,1.3136488808471418,0.00017256733821509484,33.75709620340051,45.688508835969884,2,4,3,5
188,114,230,512,4,32,40,1269,649728,7147008,2190104,2680,7.503696851337924,3.3708013199369584,0.0012236861811128605,3.263319002202635,69.35635163693674,21.843879397311866,8.087346116481491,0.006540516720776825,120.36706252815202,37.2206016184393,1.3771140813226102,0.0001896443192977016,34.16998428681714,45.30106181351232,2,3,3,5
189,114,256,512,4,32,40,1269,649728,7147008,2453720,2680,7.553068360914105,3.7765341804570527,0.0010922191611104771,2.9127235381380108,65.66787108675406,22.577245168141026,7.432548325129774,0.005524277460538942,127.09771014284343,37.16593456250382,1.385808662990304,0.00019204656504189733,33.69060350113183,43.19353659340915,1,3,4,6
190,114,282,512,4,32,40,1269,649728,7147008,2692472,2680,7.5238558310838375,4.143998719464145,0.0009953678255521321,2.6544409746879447,62.327284368507776,23.118022097317265,6.983914197975626,0.0048775057524685535,154.43144847941585,36.569691442381306,1.4842786066541083,0.00022030829821710615,33.80608922034686,44.65015244979388,1,3,4,6
191,114,307,512,4,32,40,1269,649728,7147008,2881336,2680,7.395949001881499,4.43468035855004,0.0009301240813289391,2.480449347108425,59.68472401318146,23.76619007996404,6.481723428679122,0.004201273860588783,159.35429895925336,36.586294980306256,1.4814440395867483,0.0002194676442427103,34.041983617673914,42.20876463933287,1,3,4,6
192,114,333,512,4,32,40,1269,649728,7147008,3083256,2680,7.296317594189935,4.745456560283688,0.0008692109899405045,2.3180066786539943,56.85948581560284,24.218036660770196,6.153159416426308,0.003786137080395574,177.70226834528148,36.7034344295312,1.4615991390451868,0.0002136272043257631,33.29788022495476,40.663905248118624,1,3,4,6
193,114,358,512,4,32,40,1269,649728,7147008,3300952,2680,7.265986062134879,5.080513691883373,0.0008118869950244657,2.1651353912447076,53.81351189196934,24.655380772598964,5.851011630208512,0.003423433709683527,184.79733188729733,36.69486921386183,1.4630411429034067,0.00021404893858281061,33.579457208082665,41.67945645275298,1,3,4,6
194,114,384,512,4,32,40,1269,649728,7147008,3512856,2680,7.208875098502758,5.406656323877068,0.0007629120009473773,2.0345291694279526,50.84857887384483,25.08670275682117,5.567559437985504,0.0030997718095501455,194.46075296076015,37.28023107783503,1.3676924392698586,0.0001870582608435936,33.60782550758733,43.157249532569544,1,3,3,6
195,114,410,512,4,32,40,1269,649728,7147008,3816568,2680,7.335462914912837,5.874101162332545,0.0007022015590970736,1.8726269255519619,46.59908034243141,25.59409778850548,5.251641971417286,0.002757974339595164,219.09335434390232,36.566572641231616,1.484811655219577,0.00022046656514759,33.66776641733711,44.53265595491249,1,3,4,6
196,115,77,512,4,32,40,1269,649728,7147008,678616,2680,6.944991966268562,1.044461682427108,0.003949214283188136,10.531741073007415,90.5048937961172,8.968275717511224,35.611167665642135,0.12681552625104758,70.71194848231971,38.78372678658888,1.1503067299540457,0.00013232055729775697,34.30751582450406,44.85265515683449,5,6,2,4
197,115,102,512,4,32,40,1269,649728,7147008,872728,2680,6.7424403961742305,1.343220547675335,0.003070830774307688,8.189273175605686,87.78890411204242,14.530403911548431,18.770671289031768,0.03523381006408815,75.98180613364093,38.39223693590025,1.2033394457364133,0.00014480258216652183,33.86479535169744,44.26712242917416,4,5,3,5
198,115,128,512,4,32,40,1269,649728,7147008,1167288,2680,7.186317966903073,1.7965794917257683,0.00229592011568696,6.122746057528219,83.66745916612938,18.160744849487884,12.358414505941619,0.015273040910066822,80.66768866148777,38.093550683190195,1.245439013283553,0.00015511183358087106,34.42940250472784,45.11365193254435,4,5,3,5
199,115,154,512,4,32,40,1269,649728,7147008,1406616,2680,7.1976911976911975,2.1649305555555554,0.0019052818964095388,5.080994386527666,80.31881313131314,20.85559739173273,9.06191805051771,0.00821183587542987,93.16965709789656,37.47293518868588,1.3376831007536034,0.0001789396078041775,33.763104863506335,42.30792697748649,4,5,3,6
200,115,179,512,4,32,40,1269,649728,7147008,1617432,2680,7.12051454759169,2.4893986406619386,0.0016569475563733128,4.418737851112133,77.36910326670964,22.940806639023748,7.127868321437098,0.00508065068077465,99.36349249212071,36.61912012262317,1.4758560293684735,0.00021781510194232763,33.961663858391844,42.261763793639844,3,5,3,5
201,115,205,512,4,32,40,1269,649728,7147008,1825528,2680,7.0173480174518055,2.8096803585500396,0.0014680684163704966,3.91503608818928,74.45745128590873,24.978424599882754,5.63739894675075,0.0031780266884826464,114.60699070547707,36.59767184726402,1.4795048992836866,0.0002188934747004431,33.417700780388785,43.54620332606682,3,4,3,5
202,115,230,512,4,32,40,1269,649728,7147008,2055992,2680,7.0442046116421695,3.164388790386131,0.0013035070175370332,3.4761847322363124,71.2328291783079,26.237869741362882,4.876480736102987,0.0023780064369583534,120.38236792525277,36.13857307312316,1.5598087287609326,0.00024330032703187966,33.27801210746021,40.76584446423165,3,4,3,5
203,115,256,512,4,32,40,1269,649728,7147008,2321720,2680,7.146744483845548,3.573372241922774,0.0011543166273280153,3.0783246903158004,67.51479780070206,27.677800392406965,4.131521150474882,0.001706946701682129,125.45215278049,37.111376927994456,1.3945405709997276,0.00019447434041642466,33.61355649118441,42.77231593861498,3,4,3,5
204,115,282,512,4,32,40,1269,649728,7147008,2699288,2680,7.542902492049919,4.15448926319937,0.00099285441197827,2.647738218374623,62.23191578909664,29.326484931402558,3.417242141322865,0.0011677543852432878,153.6792003843002,38.42570518347991,1.19871169049135,0.00014369097169206297,34.1354891078438,44.24931864980939,3,4,3,6
205,115,307,512,4,32,40,1269,649728,7147008,2944120,2680,7.557105931213631,4.531311564223798,0.0009102889827860278,2.4275532247326876,58.80625850705638,29.898972712042124,3.199273468259073,0.0010235350724706435,159.45543764648028,37.66768264557975,1.3080244671352728,0.00017109280066245145,33.70602627979759,44.37273758332404,3,4,3,6
206,115,333,512,4,32,40,1269,649728,7147008,3178936,2680,7.522737867891532,4.892718183609141,0.0008430493724944447,2.2482390334376032,55.520743785371444,30.588420098921862,2.955146359541669,0.0008732890006312378,177.05800413782708,37.335741901354766,1.358979498175258,0.00018468252764606763,33.724736027104,43.169033548601746,3,4,3,6
207,115,358,512,4,32,40,1269,649728,7147008,3364696,2680,7.406298013215879,5.17862243892829,0.0007965058358912662,2.124117007896107,52.921614191561,31.149702393813183,2.770223954215414,0.0007674140756508884,185.7152316228021,37.34678426938254,1.3572529258099173,0.00018421355046195804,33.55496315228417,42.76785324356552,3,4,3,6
208,115,384,512,4,32,40,1269,649728,7147008,3593816,2680,7.375016417126346,5.53126231284476,0.0007457254350250541,1.988696138032665,49.71579715595673,32.14037657007765,2.471616987636087,0.0006108890533571287,194.03653359250166,37.14093058158048,1.389803723607607,0.00019315543901535698,33.3688352388672,43.58293394648424,2,4,3,7
209,115,410,512,4,32,40,1269,649728,7147008,3800504,2680,7.3045878260201045,5.849376970055162,0.0007051696301332665,1.880542159671454,46.82384572677126,32.37916894765214,2.4045928566880983,0.000578206680643543,218.62367083178833,37.079273223044524,1.3997044355469377,0.0001959172506889771,33.58993635331359,43.35200847776032,2,3,3,6
210,116,77,512,4,32,40,1269,649728,7147008,649144,2680,6.643373962522899,0.9991011623325453,0.00412851385825025,11.009896109337836,90.91726216061322,10.235622014815315,30.776476634567366,0.0947191514038071,70.72294934280217,38.53703909961581,1.1834449070743638,0.00014005418480802497,33.667343961755186,49.42912023358913,6,6,2,6
211,116,102,512,4,32,40,1269,649728,7147008,827000,2680,6.389159288616944,1.2728403270291568,0.003240628778718259,8.642089480048368,88.42872429973494,15.361218073980666,17.058431516945998,0.029099008581833657,75.98086413810961,37.14438449446188,1.3892511830036192,0.0001930018849476955,33.59980272358009,42.733856740900634,5,6,3,6
212,116,128,512,4,32,40,1269,649728,7147008,1147416,2680,7.063977541371158,1.7659943853427895,0.0023356829606698878,6.228785375138572,83.94550558779282,18.91706540948668,11.327830175101234,0.012831973647593403,80.67138043395244,40.96422480337417,0.8949293674004282,8.008985726357305e-05,34.597067641187664,45.31766801929857,5,6,3,6
213,116,154,512,4,32,40,1269,649728,7147008,1361080,2680,6.96468228383122,2.094845843183609,0.001969024598113263,5.2509830428777144,80.95594688014901,21.525577726654756,8.389210923503,0.007037885991902207,93.25968106812797,37.94671317674068,1.2666724977543362,0.00016044592165672086,34.615369664908,42.68764351489746,5,6,3,7
214,116,179,512,4,32,40,1269,649728,7147008,1537464,2680,6.76846679081316,2.3663194444444446,0.0017431302456512802,4.648569332355099,78.48800505050505,23.614343250381175,6.596033269200603,0.00435076548884012,99.34861652832478,38.0565744465471,1.2507522063875325,0.00015643810817832807,34.60232954328822,41.06675393827921,5,6,3,7
215,116,205,512,4,32,40,1269,649728,7147008,1724408,2680,6.628641719041304,2.654046000788022,0.0015541565569169246,4.1446154274394456,75.87230908374525,25.60736646357533,5.243625621096369,0.002749560965421828,114.6610834763851,37.634328885949095,1.3130569286945937,0.00017241184979928796,34.60724121534939,41.54072729976452,5,6,3,7
216,116,230,512,4,32,40,1269,649728,7147008,2065080,2680,7.075341761743242,3.178376182033097,0.0012977705464195092,3.460886745307688,71.10567107242639,26.786158381577554,4.578171747156215,0.0020959656546459394,120.38785741780885,37.49212282323118,1.3347313426161431,0.00017815077569618921,34.27770643631685,42.48390906408271,4,6,3,7
217,116,256,512,4,32,40,1269,649728,7147008,2424504,2680,7.463135342789598,3.731567671394799,0.0011053807294192956,2.9478227299274407,66.07665753277455,27.754376154912446,4.095257291611186,0.0016771132284494584,125.4048694781959,35.45730231386611,1.6870769207542509,0.00028462285365416445,31.97380586011706,40.35604065632404,4,5,4,8
218,116,282,512,4,32,40,1269,649728,7147008,2613880,2680,7.304237993841133,4.023037332545312,0.0010252957289546573,2.7342525288077493,63.42693334049717,29.358111368044966,3.4048221501243883,0.0011592813873977663,155.4282271391712,37.78028217626646,1.291177326785889,0.00016671388892059544,34.350435991272704,43.060860111533316,4,5,3,7
219,116,307,512,4,32,40,1269,649728,7147008,2853080,2680,7.323420169771269,4.391191390858944,0.0009393357354157612,2.5050149312322123,60.08007826491869,29.265775812098905,3.4412102624679384,0.001184192807051466,159.54660765570588,35.74137259910705,1.632793903106964,0.00026660159300232735,33.65766405514212,42.35190308885411,4,5,3,8
220,116,333,512,4,32,40,1269,649728,7147008,3085208,2680,7.300936870676823,4.748460894405043,0.0008686610432748781,2.3165400841693655,56.83217368722688,31.86460469456862,2.5513483848656584,0.0006509378580956605,178.06741996877827,39.80731333124048,1.0224317643287821,0.00010453667127084661,36.314220962343896,43.111245191076165,4,5,3,7
221,116,358,512,4,32,40,1269,649728,7147008,3263000,2680,7.182446918569586,5.022101556343578,0.0008213300643579528,2.1903181121667177,54.34453130596748,30.244960039231216,3.0743407245803223,0.0009451570890813061,184.5743543766439,35.07077984289429,1.763847394330648,0.0003111157630487017,33.59013995595042,40.646150812361455,4,5,3,8
222,116,384,512,4,32,40,1269,649728,7147008,3491736,2680,7.165533884948778,5.374150413711584,0.0007675265254876084,2.046835155922441,51.14408714807651,31.442960274947136,2.6782553816614016,0.000717305188939826,195.11728070117533,36.43941836533089,1.5067079567436474,0.00022701688669146173,33.60452034439758,41.31223025369475,4,5,3,8
223,116,410,512,4,32,40,1269,649728,7147008,3708152,2680,7.12708681696746,5.7072374901497245,0.0007227319699947575,1.927377302764288,48.11602281682069,31.12578383509853,2.7778629044528635,0.0007716522315935299,216.92724584625103,35.3524058023743,1.7075746935303469,0.00029158113339852585,33.45367443026128,40.07875984462849,4,5,3,8
224,117,77,512,4,32,40,1269,649728,7147008,590296,2680,6.041120424099147,0.9085278762805359,0.004540095138710071,12.107498610866413,91.74065567017695,16.904599394722915,14.281375238933554,0.020395767871522443,70.74429760337807,39.14079533585511,1.1039775279992003,0.00012187663823272251,33.23715534965352,42.96578624774417,6,6,2,4
225,117,102,512,4,32,40,1269,649728,7147008,813240,2680,6.282853566958698,1.2516622340425532,0.0032954601347695636,8.788313413014608,88.62125241779498,19.113526403067347,11.074488585411855,0.012264429742841748,76.02862168685533,36.18975317719746,1.5506448501067733,0.00024044994511626577,33.319382400920844,45.85442069841442,5,6,2,4
226,117,128,512,4,32,40,1269,649728,7147008,1062296,2680,6.539942868400315,1.6349857171000788,0.0025228373259430516,6.727887519109552,85.13649348090837,23.037359231809848,7.049073491428919,0.004968943708756588,80.62113425321877,40.70065754591893,0.9225015885842994,8.510091809405561e-05,36.0760321632368,43.34886279813441,5,5,3,5
227,117,154,512,4,32,40,1269,649728,7147008,1251832,2680,6.405657384380788,1.9267016351457842,0.0021408623521367086,5.7092389394104,82.48453058958378,25.909327146558105,5.064465799470219,0.002564881383400353,93.21476270654239,41.13466184784251,0.8775399717554012,7.700764020284705e-05,34.489674168946244,43.62130857273102,5,5,2,5
228,117,179,512,4,32,40,1269,649728,7147008,1440152,2680,6.340064538566857,2.216546000788022,0.0018609146812280926,4.962676161960682,79.84958181101798,27.121371129572587,4.404853242708544,0.0019402732089799973,99.3268565502949,38.21972263772219,1.2274784270025754,0.00015067032887567167,34.97782608927614,41.26270553359907,4,5,3,5
229,117,205,512,4,32,40,1269,649728,7147008,1762360,2680,6.774529589267524,2.7124581363278173,0.0015206881681381784,4.055362128055562,75.34128966974711,28.571386223138095,3.7276118943435117,0.0013895090434851223,114.50634319754317,38.32315159029234,1.2129486640251665,0.00014712444615604367,34.103513340474194,41.454442601425825,4,5,3,5
230,117,230,512,4,32,40,1269,649728,7147008,2039032,2680,6.98609654983383,3.138285559495666,0.0013143491617591092,3.5050984977185253,71.47013127731213,29.027648651276287,3.5368575406790046,0.0012509361263057935,120.36598588223569,37.37281120346878,1.3531920567992206,0.0001831128742584505,33.750464402670275,40.17176343708444,4,5,3,5
231,117,256,512,4,32,40,1269,649728,7147008,2287544,2680,7.04154353821907,3.520771769109535,0.001171562164487328,3.124314985853824,67.99298391718604,31.002106273074702,2.817699574160893,0.0007939430890226476,125.40961855859496,39.33490408786941,1.0795799136593107,0.00011654927899766446,34.19303583578518,43.223199066100634,4,4,3,6
232,117,282,512,4,32,40,1269,649728,7147008,2494200,2680,6.969803665140922,3.8388371749408985,0.0010744928233501724,2.865451046427712,65.10148022781001,31.71635523157866,2.5952681587164412,0.0006735416815647427,153.65992174856365,39.24259781171729,1.091113952779369,0.00011905296579498191,33.930355443364896,43.39265507522662,4,4,3,5
233,117,307,512,4,32,40,1269,649728,7147008,2671544,2680,6.857445011717657,4.111788317572892,0.001003165210829393,2.6752349951937906,62.6201062038828,33.10424633129177,2.2120130430217753,0.0004893001702498454,159.38955052918755,40.05533891603044,0.9936491244478094,9.873385825158982e-05,35.74535861348738,42.58284967459717,4,4,3,5
234,117,333,512,4,32,40,1269,649728,7147008,2871416,2680,6.795012506596431,4.41941243104807,0.0009333374195867126,2.489018658390146,59.82352335410846,32.203017838164,2.4538561961828633,0.0006021410231545031,177.09174287319183,37.615609355150525,1.3158898354503519,0.0001731566059041554,34.657509415522995,39.56646574243215,4,4,3,6
235,117,358,512,4,32,40,1269,649728,7147008,3109112,2680,6.843711892089403,4.785251674546887,0.0008619824567271941,2.2987296694361605,56.49771204957375,31.2700422759484,2.732108146133647,0.0007464414922169836,185.2883253507316,35.75328014973889,1.6305570274403207,0.00026587162197350145,33.44857034752827,39.53384337793452,4,4,3,6
236,117,384,512,4,32,40,1269,649728,7147008,3313400,2680,6.799563304439191,5.099672478329393,0.0008088368443290879,2.1570012675801293,53.639341106096424,31.617578556881167,2.6249502222356815,0.0006890363669215154,192.6694926181808,35.301801110897415,1.7175521976518136,0.0002949985551658575,33.503728937992996,42.191950354709654,3,4,3,5
237,117,410,512,4,32,40,1269,649728,7147008,3580312,2680,6.881377693209556,5.510478230890465,0.0007485381162312112,1.9961969794811179,49.90474335554123,31.747868268066785,2.5858693979342773,0.0006686720543172982,217.494520902168,35.52673723982543,1.673644204615239,0.00028010849236421764,33.35772427768567,43.73096320565778,3,4,3,6
238,118,77,512,4,32,40,1269,649728,7147008,612728,2680,6.270690696222611,0.9430530929866037,0.00437388204880469,11.664242535023698,91.42679006375815,11.72954164842699,25.913311614498895,0.06714997188301233,70.76619338430464,38.7372877043006,1.1564733114700936,0.0001337430520142604,33.56664728126379,42.54333834897254,6,6,2,4
239,118,102,512,4,32,40,1269,649728,7147008,850712,2680,6.572351241521037,1.3093355988967692,0.003150302334985283,8.401207459163619,88.09694910093846,16.34619438306325,15.229662558717225,0.02319426216523933,76.06871391134337,39.11531153181119,1.1072212784388316,0.00012259389594277206,33.942172157087064,45.756090030571734,5,6,2,4
240,118,128,512,4,32,40,1269,649728,7147008,1103736,2680,6.795065011820331,1.6987662529550827,0.0024281168685265316,6.475287568766444,84.55667042768107,19.397678587484293,10.7180572043038,0.01148767502347286,80.70240118051879,37.65047337001418,1.3106186133607036,0.00017177211496875334,33.581919147183996,41.771574726927376,5,5,3,5
241,118,154,512,4,32,40,1269,649728,7147008,1299800,2680,6.6511109064300555,2.000529452324665,0.002061855670103093,5.498544391444837,81.81336861523032,21.479546734565762,8.433787675876893,0.0071128774561772965,93.28994549205527,36.93320174715461,1.4234424480266068,0.00020261884028439792,34.13216719463229,42.55279380049288,5,5,3,5
242,118,179,512,4,32,40,1269,649728,7147008,1480952,2680,6.5196807410048825,2.2793415090622537,0.0018096467677547955,4.825955196387189,79.27871355397951,23.50449160322827,6.6799839629403115,0.004462218574513975,99.3304316024296,36.84812582348801,1.4374531828279176,0.00020662716528221104,33.37553419987238,40.75076169666354,4,5,3,5
243,118,205,512,4,32,40,1269,649728,7147008,1741464,2680,6.694205154817506,2.6802969858156027,0.0015389350569405972,4.104022822177202,75.6336637653127,24.424498494898874,6.00862465188186,0.0036103570207202396,114.58229326992296,35.63447113503573,1.6530136629878192,0.0002732454170024408,33.30801201566682,41.67866779626329,4,5,3,5
244,118,230,512,4,32,40,1269,649728,7147008,2111480,2680,7.234316647822661,3.249790681639086,0.0012692518991418342,3.384833387008165,70.45644834873558,26.287373155060823,4.848767301220879,0.0023510544341388807,120.3773974252399,38.87205136991368,1.1386688276380341,0.0001296566699034575,33.775646852436,44.424483158539154,4,5,4,5
245,118,256,512,4,32,40,1269,649728,7147008,2364312,2680,7.2778516548463354,3.6389258274231677,0.0011335221409018775,3.0228700780607634,66.91885611433484,26.59770388406431,4.678588034705148,0.0021889185998486176,125.40382426744327,36.643932929654206,1.4716459972174385,0.0002165741941126109,33.84583149646996,40.43691120477639,4,4,3,5
246,118,282,512,4,32,40,1269,649728,7147008,2550552,2680,7.12727394664923,3.925568853427896,0.0010507529350509224,2.8021416540419484,64.31301042338276,27.506638448245788,4.213743325242311,0.0017755632811024128,153.66702708648518,36.430238641902505,1.508301169902795,0.00022749724191301402,33.93702021658258,41.52467115321406,4,4,3,5
247,118,307,512,4,32,40,1269,649728,7147008,2722776,2680,6.988949723165539,4.190639775413712,0.0009842895632986334,2.6248975310491938,61.903274768966256,28.19756406745171,3.8915426687718484,0.0015144104342871918,159.47805577656254,36.08547026005735,1.5693741216743808,0.00024629351337812345,33.51407751956968,42.41437217961162,4,4,3,5
248,118,333,512,4,32,40,1269,649728,7147008,2986072,2680,7.066338205818111,4.59588012214342,0.0008975001272574808,2.3934479811605347,58.219271616878,29.52978302308952,3.3381884398674044,0.0011143502060064379,177.67406739480793,37.88320933694858,1.2759672663802835,0.00016280924648739728,33.65948425337339,41.840706521099726,4,4,3,5
249,118,358,512,4,32,40,1269,649728,7147008,3149176,2680,6.931899925600152,4.846914401103231,0.0008510162658422394,2.2694850970539595,55.93714180815245,29.40204337579363,3.387644516369581,0.0011476135369288894,183.88841251237318,36.17747287739449,1.5528387360592404,0.00024113081402060596,33.41485344867257,41.843470857820776,4,4,3,5
250,118,384,512,4,32,40,1269,649728,7147008,3370264,2680,6.916256238508011,5.187192178881008,0.0007951899317086139,2.1206077624779542,52.8437074647181,29.376292609475914,3.3977026548386404,0.0011544383330697545,195.5611781780608,35.06412617502965,1.765199075212944,0.00031159277751326327,33.40882823708299,43.117899721526,3,4,3,5
251,118,410,512,4,32,40,1269,649728,7147008,3587832,2680,6.895831171077668,5.522052304964539,0.0007469692003415991,1.9920130039533623,49.79952450032237,30.17468673473945,3.0993146082375675,0.0009605751040834787,218.61249361606315,35.314524472790296,1.7150381154567744,0.00029413557374695235,33.17225168049841,40.65007998814551,3,4,3,5
252,119,77,512,4,32,40,1269,649728,7147008,617880,2680,6.323416536182494,0.9509825650118203,0.004337411795170583,11.56698388036512,91.354703954438,11.525432456322873,26.529457987727906,0.07038121411226199,70.73736801859923,40.21500254249599,0.975550762881252,9.516992909581928e-05,34.08937437242672,43.13453649695892,6,6,2,4
253,119,102,512,4,32,40,1269,649728,7147008,843160,2680,6.514006705913256,1.2977122734436564,0.003178518905071398,8.476455239812136,88.20261569596676,16.755671363348767,14.528354616993422,0.021107308787711405,76.01472415262833,36.183275667660304,1.5518016761124054,0.00024080884419852704,33.66501805573326,41.099929047558575,5,6,3,5
254,119,128,512,4,32,40,1269,649728,7147008,1124216,2680,6.92114854215918,1.730287135539795,0.0023838835241626164,6.3573263500964226,84.27011694963822,20.342076436859312,9.613824241471978,0.009242561654591423,80.65398196084425,38.2967363133639,1.2166430633043879,0.00014802203434866848,33.836830098323794,43.59437041890618,5,5,3,4
255,119,154,512,4,32,40,1269,649728,7147008,1291672,2680,6.609519715902695,1.9880196020488574,0.0020748301426368305,5.533144637338272,81.92709452682857,22.64730741990683,7.372836939827561,0.005435872454128582,93.27865418163128,35.62604381282063,1.6546182469077464,0.00027377615430000635,33.61509810724042,40.31194431692608,5,5,3,5
256,119,179,512,4,32,40,1269,649728,7147008,1491256,2680,6.5650426368362895,2.2952004531126873,0.001797142811160525,4.792609719592075,79.13454133533921,25.0582559534221,5.585823416629414,0.0031201423241765504,99.35555960447527,37.99299949175087,1.25994046846386,0.00015874499840729312,34.41046925434729,41.7502542460233,4,5,3,4
257,119,205,512,4,32,40,1269,649728,7147008,1753624,2680,6.740948317284591,2.699012509850276,0.001528263755514295,4.0755646592428025,75.46352263772476,26.387895800775762,4.792975510196829,0.0022972614241346554,114.61286960612051,36.76825977710595,1.4507314000457576,0.00021046215950787237,34.34134745496029,39.69933310541197,4,5,3,4
258,119,230,512,4,32,40,1269,649728,7147008,2116696,2680,7.252187617775037,3.25781865642238,0.0012661241859955328,3.3764924202625224,70.38346675979655,27.56946755164206,4.183373321040199,0.0017500612343190904,120.42006356967613,36.77454662774368,1.449681739955504,0.00021015771471604176,34.360534625958884,43.223070172424535,4,5,3,4
259,119,256,512,4,32,40,1269,649728,7147008,2349400,2680,7.231949369582348,3.615974684791174,0.0011407167787520218,3.0420566953264663,67.12750286553478,29.20301392425709,3.4661655680853007,0.0012014303745380096,125.37255095504224,38.257157141716995,1.2221996159444877,0.0001493771901214853,33.73984179028119,43.70753875310271,4,4,3,5
260,119,282,512,4,32,40,1269,649728,7147008,2549080,2680,7.123160583248104,3.92330328999212,0.0010513597062469598,2.8037597878450264,64.3336064546171,29.204381092557647,3.4656200328600555,0.0012010522212160934,153.6477501867339,35.68309694933807,1.643785527860244,0.0002702030861602781,33.553247612222194,40.49092087087996,4,4,3,4
261,119,307,512,4,32,40,1269,649728,7147008,2776696,2680,7.127354119661279,4.273628349093775,0.0009651758780939649,2.5739252694569372,61.14883319005659,30.524892592285106,2.9768391616268333,0.0008861571394195147,161.92109044454992,36.89530589129108,1.4296663832843801,0.000204394596749344,33.80797085200421,41.83636998025807,4,4,3,5
262,119,333,512,4,32,40,1269,649728,7147008,2993912,2680,7.084891037609713,4.60794671000788,0.000895149890845155,2.3871803847274067,58.10957536356472,30.733526940019324,2.906187650776439,0.0008445926661525476,178.8589910583105,35.91540768700023,1.6004039538612984,0.0002561292815534877,33.575883734841696,40.84187085950769,4,4,3,4
263,119,358,512,4,32,40,1269,649728,7147008,3181912,2680,7.003957719754701,4.897298561859732,0.0008422608796220637,2.2461362853529576,55.479103983093346,32.88229606587478,2.2692649052283764,0.0005149563210101152,185.84747016662732,38.32524799180707,1.2126559455262684,0.0001470534442220208,33.56531932775176,41.79275641836457,4,4,3,5
264,119,384,512,4,32,40,1269,649728,7147008,3392568,2680,6.96202718676123,5.221520390070922,0.0007899620582402475,2.1066661007236998,52.53163281753707,32.228042163939165,2.4467967321743402,0.000598681424857903,193.86644734907895,36.54765107333544,1.4880497332234492,0.00022142920085463784,33.39133248391692,42.920795705054445,3,4,3,5
265,119,410,512,4,32,40,1269,649728,7147008,3604248,2680,6.927382805742951,5.5473182624113475,0.00074356703534274,1.9829401306458379,49.569833978078655,33.27014569601446,2.1701648011930903,0.00047096152643374457,218.41981296008453,37.0790256134168,1.3997443376466299,0.0001959284210773803,34.219829586683396,39.84334643558995,3,4,4,5
266,121,77,512,4,32,40,1269,649728,7147008,608856,2680,6.231064443830402,0.9370936761229315,0.004401697609943894,11.738420907406677,91.48096658070062,17.555403835763688,13.250424998841526,0.017557376264992444,70.69161831191741,37.306919409017404,1.3634965065100852,0.0001859122723265207,33.42348275777956,41.94350896839818,6,6,2,5
267,121,102,512,4,32,40,1269,649728,7147008,884536,2680,6.8336655387135155,1.3613943065405831,0.0030298371123391246,8.079951522606203,87.62368812235833,21.667728350212737,8.25303301590639,0.006811255396164093,75.95567622338422,37.299246890165364,1.3647014578636552,0.0001862410069095186,33.53066088799977,43.4191840174914,5,6,3,6
268,121,128,512,4,32,40,1269,649728,7147008,1123160,2680,6.914647360126083,1.7286618400315208,0.0023861248619965096,6.363303536450728,84.28489236334981,24.54939311715722,5.922844683281012,0.003508008914227015,80.58256514999084,37.79614836050114,1.2888209350936368,0.00016610594027356365,34.16159844260954,41.77494204116443,5,6,4,8
269,121,154,512,4,32,40,1269,649728,7147008,1308728,2680,6.696795718072313,2.0142705870764384,0.0020477899150931284,5.461033919958922,81.68844920839602,27.449427061716776,4.241589613431395,0.0017991082448769091,93.18447106331587,38.08576997941797,1.2465551607354284,0.00015538997687561295,34.184629201562466,42.45007275482598,5,5,3,7
270,121,179,512,4,32,40,1269,649728,7147008,1465624,2680,6.452201399069342,2.255750098502758,0.001828572676211634,4.876426696069387,79.4931809227022,27.25699145781721,4.336610600867708,0.0018806191503558183,99.31847189646214,35.66272708508681,1.6476450036989752,0.0002714734058214196,33.36691584157668,40.513436110902546,4,5,3,7
271,121,205,512,4,32,40,1269,649728,7147008,1874648,2680,7.206165792154375,2.8852812253743103,0.0014296017172290478,3.812453324570799,73.77017067841535,30.120385402543764,3.118751198578777,0.0009726609038636559,114.5675010366831,38.57497346037065,1.1782876533970885,0.00013883617941480176,33.7496509159891,44.54031915856664,4,5,3,7
272,121,230,512,4,32,40,1269,649728,7147008,2099704,2680,7.193969918114229,3.2316661741528763,0.0012763703836350267,3.4038169189561955,70.62121659861022,31.05581022267341,2.8003317785732844,0.0007841858070087415,120.52007659897208,38.893139740561836,1.1359076201144447,0.00012902861214340614,34.315581432781684,43.75390903011169,4,5,3,7
273,121,256,512,4,32,40,1269,649728,7147008,2322040,2680,7.14772951142632,3.57386475571316,0.0011541575511188438,3.07790046683089,67.51032040260763,30.317600208788058,3.048737197211833,0.0009294798497663063,125.48612123820931,36.006991144647934,1.5836180485132043,0.00025078461235767703,33.88364784691417,42.03736042806439,4,5,3,8
274,121,282,512,4,32,40,1269,649728,7147008,2519448,2680,7.040356789564576,3.877696513002364,0.0010637250699359541,2.8367356659077703,64.74821351816033,31.155479725252953,2.768381980488329,0.0007663938789892483,153.67301016114652,36.697775279795806,1.4625517304159807,0.00021390575641427797,33.75410640222674,42.42732055148523,4,4,3,7
275,121,307,512,4,32,40,1269,649728,7147008,2737816,2680,7.027555103790463,4.21378792356186,0.000978882437680253,2.6104778407314444,61.692837058528546,32.41649129664398,2.3942827421368786,0.0005732589849294492,160.83840084495023,37.43441378110523,1.343628821019392,0.00018053384086739617,33.69198284420291,41.69212689782324,4,4,3,7
276,121,333,512,4,32,40,1269,649728,7147008,2947928,2680,6.9760729997136615,4.537172478329393,0.0009091131126676092,2.4244174213210092,58.75297746973279,33.28677173732918,2.1660147669628573,0.0004691619970701161,178.67282808735035,38.03203003196514,1.254291555509315,0.00015732473062219772,34.1366617999931,41.54811880141098,4,4,3,7
277,121,358,512,4,32,40,1269,649728,7147008,3158712,2680,6.952890368081144,4.861591312056738,0.0008484470885601473,2.262633630416448,55.80371534493875,33.130138503962584,2.2054289686552426,0.0004863916935783728,183.99267204105854,37.452851849297616,1.3407796432266452,0.00017976900516909698,33.40875580147753,42.44599286365277,4,4,3,8
278,121,384,512,4,32,40,1269,649728,7147008,3335288,2680,6.844480562122406,5.133360421591805,0.0008035288107054023,2.1428458352022375,53.33308707643814,32.88872623929337,2.2675855876612205,0.0005141944397368883,193.4859372007195,36.771882365906556,1.4501264755338323,0.00021028667950441745,33.31623365486978,41.51723657728264,3,4,3,8
279,121,410,512,4,32,40,1269,649728,7147008,3624888,2680,6.967052989678833,5.579085401891253,0.0007393331876736606,1.9716493309586394,49.28104180098861,32.11052309950953,2.480126569912214,0.0006151027802784525,216.09344049612992,35.39119388868568,1.6999662746438808,0.00028898853349265945,28.721461205843262,40.59964093948719,3,4,5,8
280,122,77,512,4,32,40,1269,649728,7147008,553144,2680,5.660904894947448,0.851347025216706,0.004845031311918777,12.920700577064924,92.26048158893903,11.260646889011566,27.35065022429649,0.07480580676918097,70.72653269441798,34.94106552858962,1.7903862075986539,0.000320548277235949,33.45980628283679,41.02913503513698,6,6,2,4
281,122,102,512,4,32,40,1269,649728,7147008,838648,2680,6.479148318113691,1.290767828999212,0.0031956196163348627,8.522059314515744,88.26574700909808,16.63924289003483,14.724408428902997,0.02168082035811496,76.0342546729371,40.35279001825056,0.9601973412446932,9.219789341333779e-05,33.62001764995954,45.38176630069345,5,6,2,5
282,122,128,512,4,32,40,1269,649728,7147008,1060728,2680,6.530289598108747,1.6325723995271868,0.0025265666598788756,6.737832884584926,85.15843273157103,19.989676331282634,10.011892628976234,0.010023799401414865,80.68415694124997,35.29041757891848,1.719804658696509,0.0002957728064074215,33.65872269581822,44.26225713159364,5,5,2,5
283,122,154,512,4,32,40,1269,649728,7147008,1233144,2680,6.310030395136778,1.897938829787234,0.002173306604905834,5.795761078998074,82.74601063829788,22.22939948396028,7.736241629519992,0.0059849434550318156,93.18193545215763,34.74110985237253,1.8320803106479295,0.0003356518264663814,33.382274363486076,42.26465723844554,5,5,2,4
284,122,179,512,4,32,40,1269,649728,7147008,1460344,2680,6.4289569493420675,2.247623620961387,0.0018351840388292073,4.89405783842711,79.56705799126011,24.943312448836117,5.660233893260788,0.003203824772641817,99.37002955796197,36.6870949805574,1.4643512119100908,0.00021443244718225512,35.184501486970966,38.513214527482525,5,5,3,6
285,122,205,512,4,32,40,1269,649728,7147008,1803096,2680,6.931119183532261,2.7751551418439715,0.0014863323971657637,3.963742363135407,74.77131689232753,27.277128855932023,4.32656823271428,0.0018719192672332365,114.52604608470574,40.1750356494253,0.9800499650665019,9.604979340268516e-05,33.32165167917708,43.95216328832491,4,5,3,5
286,122,230,512,4,32,40,1269,649728,7147008,2105848,2680,7.215020385788193,3.24112243892829,0.0012726464588137414,3.3938859784751796,70.53525055519736,27.59801220369727,4.1696479640796635,0.0017385964144353686,120.32895208126865,37.22770564571948,1.3759882258478109,0.0001893343597671806,34.99753617756932,39.62270250056507,4,4,3,6
287,122,256,512,4,32,40,1269,649728,7147008,2323032,2680,7.150783096926714,3.575391548463357,0.0011536646933834748,3.076586116764642,67.49644046851493,27.91319464652599,4.021057354048515,0.0016168902244547642,125.42972293565981,35.43508912795135,1.6913969518890264,0.00028608236488594893,34.03339927226126,41.88347053790769,4,4,3,6
288,122,282,512,4,32,40,1269,649728,7147008,2498040,2680,6.98053417836125,3.844747340425532,0.0010728411074282238,2.86104626026805,65.04775145067698,29.423885913458385,3.3791362580216906,0.0011418561850276836,153.65545314829797,36.91370350100021,1.4266414072322697,0.00020353057048296712,34.51862459694599,39.775295765088295,4,4,3,5
289,122,307,512,4,32,40,1269,649728,7147008,2718072,2680,6.9768752743317854,4.183399822695035,0.0009859930126942921,2.6294402797276892,61.96909252095422,30.129776306673662,3.115381127363122,0.0009705599568730315,159.40251439483836,37.02055848201531,1.4091981874219055,0.0001985839531433184,34.64820131362959,39.35605798630775,4,4,3,5
290,122,333,512,4,32,40,1269,649728,7147008,2944184,2680,6.967213075960121,4.531410066981875,0.000910269195131826,2.427500455134598,58.805363027437494,30.674336541483733,2.92605963393608,0.0008561824981350146,179.22355711762793,36.746226290601406,1.4544161403237796,0.000211532630923432,34.222921715458554,38.71215718039533,4,4,3,5
291,122,358,512,4,32,40,1269,649728,7147008,3099608,2680,6.822791887334857,4.7706240149724195,0.0008646254623165252,2.305778020962651,56.63069077297801,30.752915276273047,2.899707796027644,0.0008408305302343497,184.69878737907857,36.16905569879777,1.5543442647554166,0.00024159860933780573,34.26384636278551,38.04671837046971,4,4,3,5
292,122,384,512,4,32,40,1269,649728,7147008,3321880,2680,6.816965458366168,5.1127240937746254,0.0008067720688284947,2.151494936602165,53.52069005659431,33.497139464467665,2.114185192606002,0.00044697790286344784,195.17909850203432,39.36733825866487,1.0755561479427098,0.00011568210273773601,33.394517463418865,41.30803375674408,4,4,3,6
293,122,410,512,4,32,40,1269,649728,7147008,3533304,2680,6.791028080493571,5.438127955082742,0.0007584968629928249,2.022754905889785,50.562473135611434,32.554157147133644,2.3566340191621507,0.0005553723900272352,216.26582549884915,37.124807174090186,1.392385978694523,0.00019387387136651047,35.230319997114044,38.633205506479946,3,4,3,5
294,123,77,512,4,32,40,1269,649728,7147008,545848,2680,5.586237245811714,0.8401177107959023,0.0049097917368937875,13.093403291758879,92.3625662654918,11.56592204476568,26.406077754711077,0.06972809423878473,70.7086168450769,34.68457382710054,1.844044124307633,0.00034004987323935055,33.34643617788869,41.5876948819048,6,6,2,4
295,123,102,512,4,32,40,1269,649728,7147008,859768,2680,6.642315239728673,1.3232737391646967,0.003117119967246978,8.312716918982796,87.9702387348664,17.302397063012545,13.642066017040863,0.018610596521330118,76.10222514462657,35.82217402147704,1.6176750934516329,0.00026168727079737495,33.85837717572246,45.09867176336973,5,6,2,5
296,123,128,512,4,32,40,1269,649728,7147008,1056920,2680,6.506845941686367,1.6267114854215918,0.002535669681716686,6.762108768875601,85.21171376889463,21.163073586570757,8.746742084789442,0.007650549709782676,80.6570662825834,40.13784764419841,0.984254973060205,9.68757851993745e-05,33.77795570926824,42.45559704302722,5,5,3,5
297,123,154,512,4,32,40,1269,649728,7147008,1229560,2680,6.291690972542036,1.8924226753349094,0.0021796414977715605,5.812654933472136,82.79615749695537,23.83466282904707,6.430827474663083,0.004135554200888156,93.15916260448284,37.268215319351505,1.3695857668362987,0.00018757651727205723,33.71839266040256,39.68882931588215,5,5,3,5
298,123,179,512,4,32,40,1269,649728,7147008,1424952,2680,6.273148698442886,2.193151595744681,0.0018807651064737618,5.015613157495832,80.0622582205029,26.59736574462797,4.678770174472166,0.00218908903455303,99.35238898033276,39.782117703360406,1.0254018929373343,0.00010514490420394683,36.444620359369665,44.862713646025526,4,5,3,5
299,123,205,512,4,32,40,1269,649728,7147008,1843768,2680,7.087462761152434,2.837753644602049,0.0014535451314915977,3.8763054787804108,74.20223959452683,27.792185122041214,4.077469713616427,0.001662575926545923,114.60283112572506,40.2019889554385,0.9770134719969279,9.545553244634916e-05,35.931961998378256,43.50525765180509,4,5,3,5
300,123,230,512,4,32,40,1269,649728,7147008,2095320,2680,7.178949532326036,3.2249187352245863,0.0012790409102189642,3.410938663306798,70.68255695250376,29.6133265088181,3.306234661366883,0.001093118763602379,120.3834326453507,42.39158197217067,0.7593131154059468,5.765564072274848e-05,37.15926255694824,44.823730882754035,4,4,3,5
301,123,256,512,4,32,40,1269,649728,7147008,2252024,2680,6.932205476753349,3.4661027383766747,0.0011900406034749185,3.173593176626892,68.4899751056666,31.46898147840273,2.670243865926451,0.0007130202303517841,125.36747691454366,42.80644408872794,0.7238986980899893,5.240293250963815e-05,39.25813926611412,44.437950047277845,4,4,3,5
302,123,282,512,4,32,40,1269,649728,7147008,2467128,2680,6.894153546937612,3.7971705082742315,0.0010862833221462365,2.896893878226018,65.48026810659789,30.22203208194285,3.082466716387374,0.0009501601057635959,153.57733289292082,36.995709302032694,1.4132354891552528,0.00019972345478078864,33.58300339162067,42.528256199860415,4,4,3,6
303,123,307,512,4,32,40,1269,649728,7147008,2661816,2680,6.832474722973025,4.096815898345153,0.001006831426364557,2.6850120368951123,62.75621910595315,33.11600374383817,2.2090208387997974,0.000487977306625176,159.5632535025943,41.57674012872879,0.8339941293500199,6.955462077902978e-05,38.679122332681786,42.71546850583134,4,4,3,5
304,123,333,512,4,32,40,1269,649728,7147008,2883512,2680,6.823636875646332,4.438029452324665,0.0009294221768454579,2.4785775124223517,59.65427770613941,33.42347044780321,2.132192825141839,0.00045462462435863374,178.97127814707346,40.55144195270795,0.9384862247584274,8.807563940613253e-05,35.883911976165024,42.24456626065885,4,4,3,5
305,123,358,512,4,32,40,1269,649728,7147008,3025240,2680,6.659094611073691,4.6561638100866825,0.0008858801285187291,2.3624598378971586,57.67123809012107,32.47160558170238,2.3791384779282656,0.0005660299897158824,185.28088890644722,37.85720624620422,1.279792874118166,0.00016378698006436356,33.4601173284416,39.672421617740476,4,4,3,5
306,123,384,512,4,32,40,1269,649728,7147008,3289272,2680,6.750049251379038,5.062536938534279,0.0008147699551754917,2.1728236521637614,53.976936922415646,33.77463404643469,2.047709276272438,0.00041931132801321935,193.98527857707813,38.82572858600034,1.1447576928547885,0.00013104701753502182,33.37530642779727,40.68763952683296,4,4,3,6
307,123,410,512,4,32,40,1269,649728,7147008,3686168,2680,7.0848334582636605,5.673401792750197,0.0007270422834770418,1.9388720210256287,48.4236200659073,31.412314798681113,2.687721467026807,0.0007223846684316729,218.96878261258826,35.51345445801799,1.6762055608323316,0.0002809665082165232,33.869092987182256,43.81536743816455,3,4,3,5
308,124,77,512,4,32,40,1269,649728,7147008,633464,2680,6.482904014818908,0.9749679866036249,0.004230706085902277,11.282421731937411,91.13665466723977,12.798837595683834,22.911742526384646,0.05249479455953427,70.73360527562909,37.91660473416114,1.2710708626268081,0.00016156211378188576,33.55815716587808,43.68554830162143,6,6,2,3
309,124,102,512,4,32,40,1269,649728,7147008,915832,2680,7.0754492498338974,1.4095621552403468,0.002926300893613676,7.803841752635854,87.18579858872413,19.202205295237174,10.96199842249097,0.012016540941469448,75.98831522534601,40.365920808573215,0.958746870979537,9.191955626130529e-05,34.54325289302003,45.36384244111329,5,6,3,4
310,124,128,512,4,32,40,1269,649728,7147008,1123480,2680,6.916617415287628,1.729154353821907,0.0023854452237690033,6.361491081283156,84.28041496525539,22.61775720855384,7.397962738654516,0.005472985268252063,80.6949769910425,39.56598328681517,1.0512374779940008,0.00011051002351391874,33.75486983204216,43.69409876125482,5,5,2,4
311,124,154,512,4,32,40,1269,649728,7147008,1333336,2680,6.822715503566568,2.0521448975571315,0.00200999598000804,5.360245279509441,81.34413729493517,24.817565695097265,5.742773864692219,0.0032979451660992,93.18659923388623,37.607004646438526,1.3171940725022444,0.00017350002246350481,34.41653423124358,43.091598825603874,5,5,3,4
312,124,179,512,4,32,40,1269,649728,7147008,1529912,2680,6.7352201839305135,2.3546961189913316,0.0017517347402987884,4.6715157473109565,78.59367164553335,26.998023503525847,4.467852477140499,0.0019961705757490494,99.34216381167062,38.75243885184283,1.154457786831207,0.00013327727815752084,33.748162913070004,41.596866798519535,5,5,3,4
313,124,205,512,4,32,40,1269,649728,7147008,1890744,2680,7.268038978262123,2.9100546690307327,0.0014174314449761575,3.7799977151851336,73.54495755426606,27.875352715342547,4.038614165457004,0.0016310404377429973,114.66054487111978,37.00636591956758,1.4115026700844604,0.00019923397876555612,33.812419776228076,42.18352967526136,4,5,3,4
314,124,230,512,4,32,40,1269,649728,7147008,2140504,2680,7.333758180011649,3.294461682427108,0.0012520415752551735,3.338936998015421,70.05034834157175,29.000883506999994,3.5477730033727624,0.0012586693283460591,120.35492334980518,36.81350189225919,1.4431946338469654,0.00020828107511646767,33.798254764194354,44.506703850140404,4,5,3,5
315,124,256,512,4,32,40,1269,649728,7147008,2382104,2680,7.332619188337273,3.6663095941686366,0.0011250558329946971,3.0002921786790164,66.66991278028512,29.97808157062416,3.170267594306339,0.0010050596619508904,125.41867645038292,36.79538873694791,1.4462073458447842,0.0002091515687175415,33.39187267621251,43.53592972300009,4,5,3,4
316,124,282,512,4,32,40,1269,649728,7147008,2550296,2680,7.126558579101208,3.9251748423955872,0.0010508584101610167,2.802422934435846,64.3165923418583,31.56659039895045,2.6404045961271527,0.0006971736431249394,153.62611575541086,38.344425313509014,1.2099815114186572,0.00014640552579749778,33.838967525430775,43.163402011333844,4,4,3,4
317,124,307,512,4,32,40,1269,649728,7147008,2800280,2680,7.18789064204547,4.3099266154452325,0.0009570471524276144,2.5522476323796193,60.81884895049789,30.864452236011367,2.862710218281316,0.000819510979385226,160.01555753871799,36.50832732150237,1.494801874969129,0.0002234432645411223,33.69093326899834,42.14892334610923,4,4,3,5
318,124,333,512,4,32,40,1269,649728,7147008,2992056,2680,7.080498938654967,4.60509013002364,0.0008957051605985984,2.388661174790846,58.135544272512355,32.18280236660449,2.459573933014634,0.0006049503931965073,177.97265369538218,36.78500593032688,1.4479371248338353,0.00020965219174720736,33.53388374524871,42.757999260095445,4,4,3,5
319,124,358,512,4,32,40,1269,649728,7147008,3173848,2680,6.986207412690237,4.884887214342002,0.0008444008660780226,2.2518431884576704,55.591934415072714,31.88928506719554,2.544109189327565,0.000647249156722096,186.49394027283415,36.11450588022472,1.5641366993115493,0.0002446523614133228,33.34532195425803,42.735236197654224,4,4,3,5
320,124,384,512,4,32,40,1269,649728,7147008,3411192,2680,7.000246256895193,5.250184692671395,0.0007856491220664213,2.095164388284213,52.271048248441865,32.89007221573551,2.267234226955413,0.0005140351039878108,195.58002357487567,36.96899791255726,1.417588248570404,0.00020095564424849063,33.834212629226755,39.91702581712835,4,4,4,5
321,124,410,512,4,32,40,1269,649728,7147008,3666296,2680,7.04663937419516,5.642816686367218,0.0007309829866437407,1.9493810647039955,48.70166648757074,33.404600859313014,2.1368299247494154,0.00045660421273045916,215.8518731771037,36.82485450221917,1.441309585335468,0.00020773733207798983,34.49307638518308,41.557766382821036,3,4,4,5
322,200,77,512,4,32,40,1269,649728,7147008,776536,2680,7.947110415195522,1.195170902285264,0.00345122441200408,9.203704657607632,89.13480997922487,9.549850459215966,33.30484961951519,0.11092130081785209,70.76622172771022,37.95585575162733,1.265339927802269,0.00016010851328906512,33.73904555288078,46.47092910514419,3,4,3,6
323,200,102,512,4,32,40,1269,649728,7147008,1018552,2680,7.869033823143126,1.5676590819542948,0.002631186233005286,7.0168317376039715,85.74855380041551,13.783349571121999,20.456556110048336,0.04184706878835559,76.08822708716616,38.26784204874765,1.2206970571029025,0.0001490101305219687,33.2947934140306,44.01505043520578,3,4,3,7
324,200,128,512,4,32,40,1269,649728,7147008,1252568,2680,7.711337667454688,1.927834416863672,0.0021396043967273634,5.70588423143494,82.47423257396662,16.430376057590887,15.08277307913676,0.022749004375673263,80.76914639421739,37.686080858655586,1.305256777859934,0.00017036952561492972,33.66609239149537,43.57055691331641,2,4,3,6
325,200,154,512,4,32,40,1269,649728,7147008,1517592,2680,7.765558318749808,2.335734338061466,0.0017659555400924623,4.709439691300428,78.7660514721685,17.998641775829615,12.591222870356372,0.015853889337098536,93.22976236976683,36.91519502945007,1.4263964474586797,0.00020346068253227417,33.59636209984514,46.081326473615015,2,3,4,7
326,200,179,512,4,32,40,1269,649728,7147008,1818808,2680,8.007043772644629,2.799337568951931,0.001473492529172953,3.9295010798281074,74.55147664589154,19.199441378136573,10.96548717001231,0.012024190887570457,99.37246965919621,37.63239243474035,1.3133496971084262,0.00017248874268947952,33.43804976528337,44.386293984880204,2,3,4,7
327,200,205,512,4,32,40,1269,649728,7147008,2126200,2680,8.17313421361164,3.2724463159968478,0.001260464678769636,3.361399680180604,70.2504880363923,20.296748420237606,9.664125897238247,0.009339532935767095,114.57386921811849,37.50729690063341,1.332401628934196,0.00017752941007864986,33.557175296202345,46.39104216454146,2,3,4,8
328,200,230,512,4,32,40,1269,649728,7147008,2367192,2680,8.110432726898962,3.643358451536643,0.0011321430623287,3.0191923595551184,66.87855953148507,21.32539464602309,8.584801696785203,0.007369882017312607,120.35146159282885,37.527373422437435,1.3293254789511086,0.00017671062289885943,34.03889406883163,45.73560583089011,2,3,4,7
329,200,256,512,4,32,40,1269,649728,7147008,2601624,2680,8.008348108747045,4.0041740543735225,0.0010301257983474938,2.74713332902833,63.59841768751343,22.06297323515708,7.885901320045084,0.006218743962948881,125.38779421010986,36.74125526387016,1.4552487563359657,0.00021177489428173747,33.75180404329613,43.89914061804671,2,3,4,7
330,200,282,512,4,32,40,1269,649728,7147008,2835352,2680,7.923120343823528,4.363906126871552,0.0009452089193863761,2.520677503181263,60.32812611934953,23.038141723863063,7.048438485025206,0.004968048507718443,153.57556181633845,37.757410129518796,1.2945817891765665,0.00016759420088676002,33.67460098997891,44.06773491265276,2,3,4,8
331,200,307,512,4,32,40,1269,649728,7147008,3056568,2680,7.845742755715727,4.704380910165485,0.0008768003852687066,2.338246032805421,57.232900816677414,23.660692841274845,6.56092930110396,0.00430457932940845,159.32897002063692,37.21522028491057,1.3779675352128253,0.00018987945281005093,33.533348873641266,43.102246184764624,2,3,4,8
332,200,333,512,4,32,40,1269,649728,7147008,3295960,2680,7.799667279572717,5.072830476753349,0.000813116664037185,2.16841466522652,53.88335930224228,24.562222236053636,5.9141030581472505,0.0034976614982386665,176.8508419827558,37.05599595199377,1.4034605269952962,0.00019697014508339143,33.48880505953341,43.23517719870909,2,2,4,7
333,200,358,512,4,32,40,1269,649728,7147008,3524952,2680,7.759050147258872,5.4252733451536646,0.0007602940408833936,2.0275476091589333,50.67933322587578,25.161790799842738,5.519636273027217,0.003046638458651779,185.75468849553727,36.62059241907307,1.4756058864889645,0.0002177412732240883,33.52835885182277,41.06610270693128,1,2,5,8
334,200,384,512,4,32,40,1269,649728,7147008,3789528,2680,7.77664499605989,5.832483747044917,0.0007072120855156632,1.885988967491466,46.977420481409844,25.89926009358182,5.070338980540603,0.002570833737758952,194.5428596320562,37.310645055338625,1.3629117861594227,0.00018575285368522678,33.79623790387502,41.364295545415445,1,2,4,8
335,200,410,512,4,32,40,1269,649728,7147008,4042424,2680,7.769559284245325,6.221717395587077,0.0006629685555003632,1.7680005857871415,43.43893276739021,26.449540603420647,4.759079610884772,0.0022648838742739155,219.92189537617378,36.009807675892986,1.5831046196283831,0.0002506220236688728,32.79054463192929,42.035381059280084,1,2,5,8
336,201,77,512,4,32,40,1269,649728,7147008,660504,2680,6.759632802185994,1.016585401891253,0.004057507600256773,10.820537044438792,90.75831452826134,9.849960261189947,32.173772524832486,0.10351516384796661,70.75195580488071,39.44984140141847,1.0653883167737193,0.00011350522655179386,35.748037871477656,44.64976726305336,3,5,3,5
337,201,102,512,4,32,40,1269,649728,7147008,922776,2680,7.129096555880035,1.4202497044917257,0.0029042801286552748,7.745116908112045,87.08863905007522,14.782349834438795,18.234023420043467,0.03324796100826937,75.9988050465472,39.84191756512281,1.0183665406505904,0.00010370704111166507,34.19429839630033,44.76427394702228,3,4,3,5
338,201,128,512,4,32,40,1269,649728,7147008,1120152,2680,6.896128841607565,1.7240322104018913,0.002392532442025725,6.380391232618431,84.32697990543736,18.195616332593136,12.308898298495901,0.015150897732271528,80.65031468565576,36.72645121988574,1.4577311659827292,0.00021249801522773673,34.27235874533312,40.618244356929196,3,4,3,5
339,201,154,512,4,32,40,1269,649728,7147008,1325912,2680,6.784726699620316,2.0407185776201735,0.0020212502790532103,5.390258177013256,81.4480129307257,20.458134520282314,9.486221782324852,0.00899884037034545,93.12195614748634,35.62655231297972,1.6545213830228778,0.00027374410068799367,33.138547595263354,43.7406824148138,2,4,3,5
340,201,179,512,4,32,40,1269,649728,7147008,1633720,2680,7.1922201531140075,2.5144675925925926,0.0016404279803148643,4.374683544303798,77.14120370370371,22.26393237743995,7.705545356315089,0.005937542923822903,99.30127347796224,35.546993160867466,1.6697457316498225,0.0002788050808362801,33.08815802233705,44.28020729970759,2,4,3,5
341,201,205,512,4,32,40,1269,649728,7147008,1935224,2680,7.439020546233831,2.978514085894405,0.001384852606209927,3.69311666246388,72.92259921914177,23.810513202224612,6.448732166731068,0.0041586146558231975,114.54371891822666,36.733580040554266,1.4565352446481745,0.00021214949189023177,34.059120973177,45.41508938456431,2,4,3,6
342,201,230,512,4,32,40,1269,649728,7147008,2148952,2680,7.36270257306335,3.3074640464933016,0.0012471195261690349,3.325810906897874,69.93214503187907,24.900636365857785,5.688112557434303,0.0032354624466041813,120.27186215133406,36.450667412214244,1.5047578907640606,0.00022642963098167042,33.5991214572951,44.63281768329852,2,3,3,6
343,201,256,512,4,32,40,1269,649728,7147008,2376728,2680,7.3160707249803,3.65803536249015,0.0011276006341491328,3.0070786392048228,66.74513306827137,25.767159385181102,5.148041399343748,0.0026502330249357133,125.43407009146176,36.29076466245512,1.53271626771835,0.0002349219157328468,33.628927693573154,43.65121256710607,2,3,3,6
344,201,282,512,4,32,40,1269,649728,7147008,2594712,2680,7.250674848682997,3.993535756501182,0.0010328699293023658,2.7544513610759114,63.69512948635289,26.921435134312393,4.507422240792345,0.0020316855256789492,153.69397570122965,37.31714598562545,1.3618921002077364,0.00018547500926082387,33.651915656636355,42.35523173795521,2,3,3,6
345,201,307,512,4,32,40,1269,649728,7147008,2784504,2680,7.147396061943154,4.285645685579196,0.0009624694380040395,2.5667077511829754,61.039584676552764,27.483581781616998,4.224943552506473,0.0017850148021866013,159.83960281359032,36.83555261829305,1.439535465922411,0.0002072262357648453,33.43659333254372,42.70879297662071,2,3,3,6
346,201,333,512,4,32,40,1269,649728,7147008,3008344,2680,7.119043393275072,4.630159081954295,0.000890855567049513,2.375728307666942,57.907644709506414,28.257177022427413,3.8649256955170213,0.0014937650631867733,177.01536326063797,36.99284240403739,1.413702024061498,0.00019985534128355762,33.59313923677747,41.87320034824804,1,3,4,7
347,201,358,512,4,32,40,1269,649728,7147008,3197784,2680,7.0388948320720575,4.9217272458628845,0.0008380803706566798,2.2349877290023343,55.25702503761014,28.849422020346125,3.610180357817022,0.0013033402215967844,185.95058904285543,37.29850908005017,1.3648173853445968,0.00018627264953388614,34.08688770769342,41.947455710856474,1,3,4,7
348,201,384,512,4,32,40,1269,649728,7147008,3420408,2680,7.01915878644602,5.264369089834515,0.0007835322569705134,2.089519145084446,52.142099183322586,29.602828301866243,3.3102331602495596,0.0010957643575215787,192.56384957605042,38.63402965272203,1.1703035363677052,0.00013696103672347567,35.4921207865874,41.03940620892071,1,3,4,7
349,201,410,512,4,32,40,1269,649728,7147008,3701080,2680,7.113494397355321,5.6963529353821905,0.000724112961622013,1.9310601229911268,48.21497331470736,29.647834975872183,3.2931252675899274,0.0010844674028039232,217.03337691864,37.23831241360609,1.3743089643382833,0.0001888725129460565,33.080304014735496,42.994950472756194,1,3,3,7
350,202,77,512,4,32,40,1269,649728,7147008,710328,2680,7.269534248257653,1.0932697990543736,0.003772904911533827,10.061560293272967,90.06118364496024,9.442133628728582,33.72044665389775,0.1137068522538364,70.7418564602267,37.40029012995161,1.3489178246855775,0.00018195792977544704,33.84627027349762,45.278833894789294,3,5,3,5
351,202,102,512,4,32,40,1269,649728,7147008,971128,2680,7.50264991733494,1.49466853821907,0.002759677406067995,7.359491230816123,86.41210419800845,14.46399532807,18.914733802105335,0.03577671548045061,75.98657815414481,37.62783034845135,1.3140396884228172,0.00017267003027503347,33.51711925660663,44.14334093768804,3,5,3,6
352,202,128,512,4,32,40,1269,649728,7147008,1220952,2680,7.51669621749409,1.8791740543735225,0.0021950084851820547,5.8536355237552335,82.91659950569525,18.027186622994734,12.54991166178748,0.015750028271866938,80.69258817890659,37.61863505541659,1.3154315295078813,0.0001730360108823444,33.69648493619721,44.40753447042869,3,4,3,6
353,202,154,512,4,32,40,1269,649728,7147008,1443096,2680,7.384360320530534,2.2210771276595747,0.001857118306751595,4.9525520131716805,79.80838974854932,20.429077883174703,9.518008884281915,0.009059249312126948,93.18854852509685,37.01342829995284,1.4103554626446309,0.00019891025310115508,33.44124938532474,45.55594678123621,2,4,3,8
354,202,179,512,4,32,40,1269,649728,7147008,1681848,2680,7.404096834264432,2.5885416666666665,0.0015934852614504997,4.249496981891348,76.46780303030303,22.352898603216953,7.6270232422291615,0.0058171483537503834,99.38551871594973,37.23984407361029,1.3740666416081622,0.00018880591355803335,33.31782692885447,43.21123116028765,2,4,3,8
355,202,205,512,4,32,40,1269,649728,7147008,1935736,2680,7.44098867939034,2.9793021079590227,0.0013844863142494638,3.6921398372505343,72.91543538219071,23.750233969664396,6.4936413957914105,0.0042167378577135815,114.49733104673214,36.83603121208513,1.4394561494924496,0.00020720340063116294,33.458485146194235,45.44529412374131,2,4,3,7
356,202,230,512,4,32,40,1269,649728,7147008,2220920,2680,7.609278103265153,3.4182303979511426,0.0012067071303784017,3.218039371071448,68.92517820044415,24.838832811663497,5.728730070695936,0.003281834822289586,120.32140332972631,38.03396838082099,1.2540116782091428,0.0001572545289084911,33.607126048190544,46.69288137401162,2,4,3,7
357,202,256,512,4,32,40,1269,649728,7147008,2518552,2680,7.7526349487785655,3.8763174743892828,0.001064103500741696,2.8377448629212343,64.7607502328247,25.66834835134032,5.206940109579366,0.0027112225304746383,125.3898401465267,37.12307601417708,1.3926635188332486,0.00019395116766890064,33.8629384939476,43.41900863220603,2,3,4,8
358,202,282,512,4,32,40,1269,649728,7147008,2783256,2680,7.777543047801083,4.28372488179669,0.0009629010051536762,2.567858651881106,61.057046529120996,26.434133558530444,4.767528765233594,0.002272933052732976,153.7152986486908,36.87069439206624,1.4337230927093825,0.00020555619065681563,33.82681093658718,44.6922315318892,2,3,4,8
359,202,307,512,4,32,40,1269,649728,7147008,2986136,2680,7.664954579640282,4.595978624901497,0.0008974808916941493,2.3933966838750815,58.21837613725911,27.286316267749324,4.321994268432645,0.0018679634456364635,159.33775775367394,38.302818321923695,1.2157914472048268,0.0001478148843096407,33.74968629442528,44.047139752166224,2,3,3,7
360,202,333,512,4,32,40,1269,649728,7147008,3213784,2680,7.605203312059104,4.9463529353821905,0.0008339079415418087,2.2238607199488203,55.03315513288918,27.64878623894159,4.145345067965357,0.001718388573250471,177.02789884316735,37.520426970706296,1.3303890186782712,0.00017699349410197338,30.413310984409254,43.57934065949173,2,3,4,8
