,record,m,n,d,f,w,s,u_bits,c_bits,overhead_bits,bpm,bps,overhead,cr,pms,pss,snr,prd,nmse,rtime,qc_snr,qc_prd,qc_nmse,min_qc_snr,max_qc_snr,min_q,max_q,min_rng,max_rng
0,100,244,256,4,40,2539,649984,7149824,4523544,2680,7.301738776722473,6.959469771563608,0.0005924558266704159,1.5805801822641716,5,36.732092985785386,32.74218822821234,2.306166125212364,0.0005318402197077009,8.721113903913647,37.30298713376011,1.3641139282877053,0.0001860806809348515,33.61990830955854,43.69547021047625,2,2,3,6
1,100,231,256,4,40,2539,649984,7149824,4293976,2680,7.321244857282667,6.606279539188657,0.0006241301767872014,1.6650824317602149,10,39.94291328010312,32.75957912033466,2.3015533377674355,0.0005297147766588423,2.8850786099210373,38.657400733392926,1.1671588389874012,0.00013622597554264188,33.63470142670543,42.69976484226592,2,2,3,5
2,100,218,256,4,40,2539,649984,7149824,4123640,2680,7.450090514578086,6.3442177038204015,0.000649911243464512,1.7338623158180637,15,42.32529360163271,31.902564281148717,2.540222660709975,0.0006452731165984465,2.8952806000597784,35.5463786380409,1.6698638695963341,0.0002788445342983242,33.84938841759909,41.47871145304296,2,2,3,5
3,100,205,256,4,40,2539,649984,7149824,3858200,2680,7.412559198455317,5.935838420638047,0.0006946244362656161,1.8531501736561091,20,46.037832539654126,31.732921186913238,2.5903231127323236,0.0006709773828355275,2.8117537409998477,36.45213577073957,1.5045035314043522,0.00022635308760081668,33.88912391144505,44.76100978249659,2,2,3,6
4,100,192,256,4,40,2539,649984,7149824,3623064,2680,7.432109098070106,5.5740818235525795,0.0007397053985245637,1.9734191833210786,25,49.32652887679473,32.23108789131426,2.4459389076252434,0.0005982617139834968,2.760716282296926,39.340552016898684,1.0788781537903704,0.00011639780707261184,35.28338341608825,44.25245557239571,2,2,4,5
5,100,180,256,4,40,2539,649984,7149824,3388920,2680,7.415255349875279,5.213851417881055,0.0007908124122139207,2.109764762815292,30,52.60135074653586,30.650409662705364,2.9341311148574745,0.0008609125399174766,2.850593169219792,37.25852284314203,1.3711149235830211,0.00018799561336720739,34.202180611880685,44.77620313680301,2,3,3,5
6,100,167,256,4,40,2539,649984,7149824,2994648,2680,7.062632513625761,4.6072641788105555,0.0008949298882539784,2.3875340273714976,35,58.11578019263131,30.892404651184965,2.8535124217849166,0.0008142533141280819,2.904989449772984,37.45476540787176,1.3404842931941134,0.0001796898140300122,33.7087926519055,45.22227274400457,2,3,3,4
7,100,154,256,4,40,2539,649984,7149824,2658680,2680,6.799588753113763,4.090377609294998,0.0010080190169557827,2.6892382686145004,40,62.81474900640911,29.17654910676842,3.4767426456344084,0.0012087739423972945,2.889753975905478,35.27445138968986,1.7229688687212121,0.00029686217225824527,33.3452834034513,40.02710782469801,2,3,3,4
8,100,141,256,4,40,2539,649984,7149824,2395896,2680,6.69246562141235,3.686084580543521,0.0011185794375048,2.9841963090217605,45,66.49014017687708,28.701443141043132,3.6722128243841565,0.0013485147027571462,3.0740938149392605,35.834514444117964,1.6153784236933408,0.0002609447451733983,33.399419675418756,39.773922265201904,3,3,3,5
9,100,128,256,4,40,2539,649984,7149824,2224280,2680,6.844106931862938,3.422053465931469,0.0012048842771593504,3.214444224647976,50,68.89042303698665,27.950792592471107,4.003689327661208,0.0016029528232428256,2.7590208440087736,35.71364434716838,1.6380146536842475,0.00026830920056843257,33.52763572251485,40.46964076648812,3,3,3,4
10,100,116,256,4,40,2539,649984,7149824,2005400,2680,6.808952750879385,3.0853067152422216,0.0013363917422958014,3.565285728532961,55,71.95175713416162,27.578728006987834,4.178915597133561,0.0017463335567966145,2.842965097166598,37.195537607984996,1.3810936217966954,0.00019074195921675138,33.62329681711821,42.21696200341041,3,3,3,5
11,100,103,256,4,40,2539,649984,7149824,1816536,2680,6.94614881632934,2.794739562820008,0.0014753354736707668,3.9359660364562004,60,74.5932767016363,26.57951465045804,4.688395791990009,0.002198105510234963,2.8118378082290287,38.18752738357468,1.2320366602955934,0.00015179143323123195,35.06160420248929,41.92776402340269,3,3,3,5
12,100,90,256,4,40,2539,649984,7149824,1639256,2680,7.173672924598486,2.5219943875541553,0.0016348880223711244,4.361627470022986,65,77.07277829496222,26.41249192664401,4.779422278843378,0.002284287731950443,2.887343978974968,38.90003097864123,1.1350067676091207,0.00012882403625185046,34.76910032155758,43.87719583798789,3,3,3,5
13,100,77,256,4,40,2539,649984,7149824,1351736,2680,6.914144539981484,2.079645037416306,0.001982635662585002,5.289364195375429,70,81.09413602348813,21.63225795532516,8.286804672197075,0.006867113167514726,2.921056307852268,36.410770566161474,1.5116855846669575,0.0002285193306889881,33.79043871943081,41.77126387496706,3,4,3,4
14,100,64,256,4,40,2539,649984,7149824,1025688,2680,6.312081528160693,1.5780203820401733,0.0026128803300808825,6.970759139231423,75,85.65436016327115,22.99895597594177,7.080308829616251,0.005013077312274184,2.862290628254414,39.05862295879839,1.114471205318672,0.00012420460674844537,35.130690953872225,41.47006285415172,4,4,3,4
15,100,52,256,4,40,2539,649984,7149824,873560,2680,6.616475293119641,1.3439715439149271,0.00306790603965383,8.184697101515637,80,87.78207687350066,21.286934291529814,8.622898725674863,0.00743543824332452,2.9052277971059075,40.925989394276506,0.8988775427258205,8.079808368168094e-05,34.828966894261164,43.540634426360846,4,4,3,4
16,100,39,256,4,40,2539,649984,7149824,673336,2680,6.799931327698165,1.0359270382040173,0.003980182256703934,10.618508441550727,85,90.58248147087257,18.9674844813308,11.262265879140198,0.012683863273244556,2.8711967021226883,39.86556707732827,1.0155975537670276,0.00010314383912175709,35.25322980143298,44.37624362526542,4,5,3,4
17,100,26,256,4,40,2539,649984,7149824,411544,2680,6.234192746993062,0.6331602008664828,0.0065120618937464765,17.373170304997764,90,94.24399817394107,15.053328592731411,17.673947897373278,0.031236843427906537,2.7624402488581845,39.06542367905793,1.113598958389496,0.00012401026401261705,33.86496929892118,42.697050215243095,5,5,2,4
18,101,244,256,4,40,2539,649984,7149824,4611128,2680,7.443113656467307,7.0942177038204015,0.0005812026905347239,1.550558561809605,5,35.507111783450895,32.18051090022053,2.460222890659833,0.0006052696671726624,1.588820799253881,37.681416190086665,1.305957940978537,0.00017055261436048997,32.23135232434566,42.994021724715275,2,3,4,8
19,101,231,256,4,40,2539,649984,7149824,4382328,2680,7.471885341912912,6.742209038991729,0.0006115471046439244,1.6315127484752396,10,38.707190554620645,32.047481037313176,2.4981927757458764,0.0006240967144788887,1.5969703490845861,35.376326055207116,1.7028786371799862,0.0002899795652963967,25.681363676843173,42.77196047255812,2,3,4,8
20,101,218,256,4,40,2539,649984,7149824,4200472,2680,7.5889012144490895,6.462423690429303,0.0006380235364025757,1.7021477586328393,15,41.25069372336998,31.790458562952967,2.5732209101869956,0.000662146585262359,1.587122946977615,36.913628152335264,1.4266537831656663,0.00020353410170209082,30.97726775166128,44.26151680081025,2,3,3,8
21,101,205,256,4,40,2539,649984,7149824,3944760,2680,7.578862429033901,6.069010929499803,0.0006793822691367789,1.8124864377047019,20,44.82717336818361,31.47462683117294,2.668508917463478,0.0007120939842582103,1.5737531320191922,37.087418145046,1.3983925215837139,0.00019555016444212572,28.56330416842014,44.32944060285692,2,3,3,8
22,101,192,256,4,40,2539,649984,7149824,3696504,2680,7.582758960220559,5.687069220165419,0.0007250093601954712,1.9342124342351583,25,48.29937072576892,31.534241743641367,2.6502565273831347,0.0007023859660936911,1.5762062929570675,37.87572226803968,1.2770675996553873,0.00016309016540895724,33.227053147925915,42.421893860130176,2,3,4,8
23,101,180,256,4,40,2539,649984,7149824,3493880,2680,7.644917071462956,5.375332315872391,0.0007670555371106048,2.04638510767399,30,51.133342582978266,30.40992359248774,3.0165034084415057,0.000909929281313922,1.576081939041614,37.51808408603469,1.330747918984531,0.000177089002388166,33.880290110283084,45.15775644367704,2,3,3,8
24,101,167,256,4,40,2539,649984,7149824,3156312,2680,7.443903842570864,4.855984147302087,0.0008490922316931913,2.265246274766246,35,55.854689569981026,30.874368024435757,2.8594440206339256,0.0008176420107139111,1.6028276239521797,37.29052975682344,1.3660717557389128,0.00018661520418275962,31.529988588154804,44.9573594497395,2,3,3,8
25,101,154,256,4,40,2539,649984,7149824,2781016,2680,7.112463747359375,4.2785914730208745,0.0009636765843849873,2.5709395415200778,40,61.103713881628416,29.07331922174991,3.5183094832059476,0.0012378501619616901,1.5746733169071376,36.463330362279564,1.5025657386764912,0.00022577037990444298,33.25150222268892,44.195365444380485,2,3,3,8
26,101,141,256,4,40,2539,649984,7149824,2497176,2680,6.975371439585027,3.8419038007089403,0.0010732123006147744,2.8631638298622124,45,65.0736018117369,28.379726066174616,3.8107784155992017,0.0014522032132796763,1.585654521826655,34.874661273814226,1.8041262947622185,0.00032548716874524505,27.5942859145861,43.27390181948846,2,3,3,8
27,101,128,256,4,40,2539,649984,7149824,2306936,2680,7.098439346199291,3.5492196730996457,0.001161714065756484,3.099272801672868,50,67.73436660818504,27.492472849507486,4.2206210199531276,0.0017813641794070178,1.5774102141149342,36.20112617731159,1.5486158186331862,0.00023982109537209337,33.377898800593236,44.60395525389927,3,3,3,8
28,101,116,256,4,40,2539,649984,7149824,2079544,2680,7.060694544417433,3.1993772154391493,0.001288744070815525,3.438169137080052,55,70.91475258691682,27.420013861941158,4.255977339154131,0.0018113343111393477,1.6539695430546995,36.91140985559632,1.4270181840185545,0.00020363808975196128,30.893662911967795,41.85584808527557,3,4,3,8
29,101,103,256,4,40,2539,649984,7149824,1882904,2680,7.19992964128527,2.8968466916108704,0.0014233333191708128,3.797232360226544,60,73.66503007626481,25.90737393755254,5.065604781533483,0.0025660351802694885,1.7803351618349554,36.385122366681784,1.5161559746393214,0.00022987289394345105,33.69598500809918,40.45473160083727,3,4,3,8
30,101,90,256,4,40,2539,649984,7149824,1691352,2680,7.401654194564789,2.602144052776684,0.0015845311916147554,4.227283262147679,65,76.34414497475743,25.61416290911161,5.239524247692748,0.002745261434216026,1.5757496790029106,36.769640676821766,1.450500778264395,0.00021039525077456157,33.87039357033813,42.77079237302781,3,4,3,7
31,101,77,256,4,40,2539,649984,7149824,1448984,2680,7.411569131931479,2.2292610279637652,0.001849571837922296,4.93437056585856,70,79.73399065487486,21.526084374211397,8.388721595473978,0.007037065000637149,1.5738324718549843,36.62224024504264,1.4753259714579212,0.0002176586722058259,33.77024979147536,44.68502472297353,3,4,3,8
32,101,64,256,4,40,2539,649984,7149824,1092376,2680,6.72247932256794,1.680619830641985,0.002453367704892821,6.545204215398361,75,84.72163790325469,22.52458934574839,7.477742961377774,0.005591663979643484,1.5889930264092982,37.54478962311416,1.3266627000332498,0.00017600339196595125,33.49391266386878,42.07864517384792,3,4,3,7
33,101,52,256,4,40,2539,649984,7149824,918168,2680,6.954343018147665,1.4126009255612446,0.002918855808523059,7.787054221014019,80,87.15817340398868,20.705331559515912,9.220053095344417,0.008500937908097018,1.6243254733271897,39.788213865911416,1.024682470544763,0.00010499741654417194,34.866928695663006,43.925264296859716,4,5,3,6
34,101,39,256,4,40,2539,649984,7149824,718040,2680,7.251391119055554,1.1047041157936195,0.003732382597069801,9.957417414071639,85,89.95723531096709,18.545097368654886,11.823474840696154,0.013979455730857494,1.5861599096097048,39.79745342857223,1.023593050288152,0.00010477427325982031,34.13219239332272,44.61481136901207,4,5,3,8
35,101,26,256,4,40,2539,649984,7149824,444312,2680,6.730572302844851,0.6835737495076802,0.006031797475647743,16.091899386017033,90,93.78569318629381,15.07191300280963,17.63617298062271,0.03110345974024465,1.6195495082065463,39.85164022457821,1.017227257051398,0.00010347512924883113,34.80552658485021,43.73204636202929,5,6,3,6
36,102,244,256,4,40,2539,649984,7149824,4409048,2680,7.116923533855461,6.783317743205987,0.0006078409670296173,1.6216253486013308,5,38.33347506176376,28.054599323147837,3.9561252594563703,0.001565092706850873,1.5821940829046075,39.17488629163759,1.0996530558100264,0.00012092368431523288,33.66147839559153,42.4387832411274,2,2,3,4
37,102,231,256,4,40,2539,649984,7149824,4185688,2680,7.136613419401919,6.43967851516345,0.000640277058395179,1.7081598055086762,10,41.45746804396863,27.651453590665447,4.144072268495772,0.0017173334966515688,1.576414838898927,39.06700991988963,1.1133956084822716,0.00012396497809876082,36.01703246915623,42.502122047247305,2,2,4,4
38,102,218,256,4,40,2539,649984,7149824,4015032,2680,7.253870808054894,6.177124359984246,0.0006674915666923701,1.7807638893039957,15,43.84432400014322,27.560126530465222,4.187874644464989,0.0017538294037752757,1.5708307102322578,36.666536024718646,1.467821344531365,0.00021544994994618645,33.687778700816686,42.84676219057936,2,2,3,4
39,102,205,256,4,40,2539,649984,7149824,3763672,2680,7.230947463472272,5.790407148483655,0.0007120705523754461,1.8996937033832917,20,47.359935013784956,27.006395602238037,4.463548107371925,0.0019923261706823493,1.5830002180300649,37.65551884533144,1.3098575199189795,0.00017157267224882994,33.79984570053001,43.81541958680248,2,2,3,4
40,102,192,256,4,40,2539,649984,7149824,3533336,2680,7.248047131416568,5.436035348562426,0.0007584899935924577,2.0235335671444776,25,50.58149683125067,27.00274412504049,4.465424941085128,0.0019940019904465117,1.5646054148674013,38.0731603384341,1.248366147160608,0.0001558418037376621,34.12422334934357,42.41520543815671,2,2,4,4
41,102,180,256,4,40,2539,649984,7149824,3350840,2680,7.331932956982189,5.155265360378102,0.0007997994532714185,2.1337407933533084,30,53.13395126928999,26.26807607336098,4.859551582014668,0.002361524157826127,1.7583473660051827,37.08644002503838,1.3985500037504979,0.0001955942112990518,33.80059557405614,44.08623446784231,2,2,3,4
42,102,167,256,4,40,2539,649984,7149824,3131480,2680,7.385339600436779,4.81778012997243,0.0008558253605324,2.283209217366868,35,56.20199881843245,26.01592509768514,5.002691764474743,0.0025026924890343416,1.6066075079143047,39.41376561392891,1.0698224797332332,0.00011445201381425641,33.89502418756725,43.280787895910976,2,2,3,4
43,102,154,256,4,40,2539,649984,7149824,2926136,2680,7.483608947177281,4.501858507286333,0.0009158836089641767,2.4434353017084645,40,59.074013570124244,24.506699778556573,5.952028623403825,0.0035426644733818425,1.5930524850264192,36.76459520956141,1.4513435912034935,0.00021063982197274533,33.881647261972134,43.75346700227666,2,3,3,4
44,102,141,256,4,40,2539,649984,7149824,2585048,2680,7.22082463917497,3.977094820795589,0.0010367312328436456,2.765838003781748,45,63.84459253822192,23.75831369277986,6.48760373798189,0.004208900226107658,1.6035494026727974,36.16987449705376,1.5541977473068689,0.00024155306377337458,33.2027327852437,45.30773956035611,2,3,3,4
45,102,128,256,4,40,2539,649984,7149824,2250968,2680,6.926225876329264,3.463112938164632,0.0011905988890113053,3.176333026502376,50,68.51715510759426,22.73062475898271,7.3024528587508355,0.005332581775427825,1.5847147689200942,36.29453169192837,1.532051680008404,0.0002347182350216573,33.304651509551135,44.58886236528062,2,3,3,4
46,102,116,256,4,40,2539,649984,7149824,1973464,2680,6.700520161345086,3.0361731981094917,0.0013580181852823258,3.622981721480605,55,72.3984254717319,22.32172284596567,7.6544476590511294,0.005859056896515331,1.576772399712354,35.83907333084684,1.6145307966478895,0.0002606709693324469,33.26924104176866,40.77781795797062,2,3,3,4
47,102,103,256,4,40,2539,649984,7149824,1779992,2680,6.806410290726798,2.73851664040961,0.0015056247443808737,4.016773109092625,60,75.10439417809445,20.89493267437202,9.020972653398012,0.008137794761335476,1.5729878447018566,36.760945693468756,1.4519535246606154,0.00021081690377743845,34.082835161809605,41.222791286679445,3,3,3,3
48,102,90,256,4,40,2539,649984,7149824,1598872,2680,6.996945429084066,2.459863627412367,0.0016761817081042134,4.471792613792724,65,77.6376033871603,20.172408428729277,9.803464455767198,0.009610791533549086,1.573262048419565,37.00637916401894,1.4115005177932176,0.00019923337117305214,33.651887916175596,41.40242367843672,3,3,3,4
49,102,77,256,4,40,2539,649984,7149824,1404312,2680,7.18307135951878,2.160533182355258,0.0019084078182056408,5.091335828505346,70,80.35878925131584,17.103575723245115,13.957936359079273,0.019482398740410717,1.5741300443187352,36.81764899925738,1.442505740222517,0.00020808228105749114,33.73150463682116,43.50139812981328,3,3,3,4
50,102,64,256,4,40,2539,649984,7149824,1120248,2680,6.894003544702639,1.7235008861756598,0.002392327413215645,6.382358192114603,75,84.33181012567582,17.33629074363714,13.58893629959537,0.01846591897544607,1.576189034152776,39.52780937519116,1.0558677647694237,0.00011148567366791793,35.255275890017636,45.88181820346264,3,4,3,3
51,102,52,256,4,40,2539,649984,7149824,859960,2680,6.513466840367195,1.3230479519495864,0.0031164240197218474,8.314135541187962,80,87.97229134591285,15.66042018271499,16.48082663066262,0.027161764642995825,1.5756311807781453,40.194829644488514,0.9778191035473113,9.561301992620673e-05,38.000085682814984,44.6715326848571,3,4,3,3
52,102,39,256,4,40,2539,649984,7149824,671608,2680,6.782480483937751,1.0332685112248916,0.0039904229848363925,10.645829114602567,85,90.60664989795553,13.993039123106447,19.96861960215019,0.039874576881537685,1.5750230429694057,38.86035004671475,1.140203835716732,0.00013000647869831485,34.81537478815384,42.72494766220458,4,4,3,3
53,102,26,256,4,40,2539,649984,7149824,411992,2680,6.240979186233223,0.6338494486018117,0.0065049806792364905,17.354278723858716,90,94.23773228543807,11.513070770536109,26.567241371489136,0.07058183140909641,1.7533324090763922,39.60830089702663,1.0461283103646302,0.00010943844417463561,36.878261729189724,42.01222190671418,4,5,3,3
54,103,244,256,4,40,2539,649984,7149824,4624696,2680,7.46501462431963,7.1150920638046475,0.0005794975496767787,1.5460095106791885,5,35.317344874503206,32.51189230809391,2.3681291549147665,0.0005608035694357326,1.5696145258843897,34.97062650625586,1.784303283533414,0.00031837382076281226,27.88918829212922,41.734604308665254,2,3,4,8
55,103,231,256,4,40,2539,649984,7149824,4384376,2680,7.475377189437843,6.745359885781804,0.0006112614429054442,1.630750647298498,10,38.67854649289269,32.208300252757645,2.452364311580883,0.000601409071671558,1.5761746759526432,34.73925686231849,1.8324711961963225,0.00033579506848891816,27.00362144167301,42.26214852602323,2,3,4,8
56,103,218,256,4,40,2539,649984,7149824,4189848,2680,7.569707065195789,6.44607867270579,0.0006396413425976312,1.7064638144390918,15,41.39928479358373,32.03554475446957,2.5016281905574913,0.0006258143603791947,1.5750288283452392,35.06531449926104,1.7649575932877706,0.000311507530610416,28.856470545689028,41.80782749991844,2,3,4,8
57,103,205,256,4,40,2539,649984,7149824,3941016,2680,7.571669276361924,6.063250787711698,0.0006800276882915472,1.8142083158251578,20,44.879538293530025,31.795637232728872,2.5716871709673734,0.0006613574905318173,1.5807682271115484,35.81736886998602,1.6185702607540313,0.0002619769688997373,28.770031305340318,43.25417024477082,2,3,4,8
58,103,192,256,4,40,2539,649984,7149824,3699672,2680,7.5892575817250885,5.691943186293816,0.0007243885403895264,1.9325561833589573,25,48.255061942783485,31.894771100466663,2.542502829875064,0.000646432063992271,1.5699145239777863,34.39122377114008,1.9073869697614498,0.0003638125052415766,26.56915260295894,42.79254542972683,2,3,4,8
59,103,180,256,4,40,2539,649984,7149824,3510456,2680,7.6811868189575945,5.400834482079559,0.0007634335824177827,2.0367222947674035,30,50.901504708367646,31.32063665958393,2.7162401661811315,0.0007377960640375701,1.5838971501216292,37.608699373720775,1.3169370962955107,0.00017343233155992508,30.52819634405489,44.82700914632228,2,3,4,8
60,103,167,256,4,40,2539,649984,7149824,3275512,2680,7.725027298691313,5.039373276880662,0.0008181926978133495,2.1828111147203857,35,54.18751566472126,31.25736146204414,2.736099753057788,0.0007486241858682889,1.568421851843596,35.88288640253241,1.6064073400910122,0.00025805445422982814,28.109037219177875,42.68427872587042,2,3,4,8
61,103,154,256,4,40,2539,649984,7149824,3045752,2680,7.78952752643182,4.685887652619141,0.0008799140573493837,2.347474121333582,40,57.40102133982599,29.98893262351343,3.1663095354606354,0.0010025516074348944,1.5723669948056342,36.58047262253233,1.4824374195586087,0.00021976207029075867,28.332744754499462,46.32747363417913,2,3,3,8
62,103,141,256,4,40,2539,649984,7149824,2694008,2680,7.525183031237518,4.144729716423789,0.0009948003123969936,2.6539728167102696,45,62.32063894160192,29.733348790554203,3.2608630561525755,0.0010633227870980716,1.5656138029880822,36.95657193123836,1.4196176930766726,0.00020153143944963336,32.61789416745119,43.867261747259796,2,3,3,8
63,103,128,256,4,40,2539,649984,7149824,2347448,2680,7.223094722331626,3.611547361165813,0.001141665331883816,3.045785891742863,50,67.16775126212897,28.89983093915577,3.589289207153265,0.0012882997012586914,1.5844956282526255,36.35210664328806,1.5219299648946427,0.00023162708180442086,30.305540843941053,44.28673383414721,2,3,3,8
64,103,116,256,4,40,2539,649984,7149824,2102296,2680,7.137944615718923,3.234381153997637,0.0012747966984668192,3.400959712618965,55,70.59653496365785,28.450226987451284,3.779972590096485,0.0014288192781880728,1.589319342747331,36.71984589335061,1.458840143055518,0.00021282145629902442,30.033675567724075,45.04845322204998,2,4,3,8
65,103,103,256,4,40,2539,649984,7149824,1874776,2680,7.168849443822007,2.884341768412761,0.0014295041114245116,3.813695076105092,60,73.77871119624763,26.852252397718686,4.543467021669214,0.002064309257699571,1.5754327741451557,36.21172100072071,1.5467280087172386,0.00023923675329503942,33.190657179788914,41.84557355319828,3,4,3,8
66,103,90,256,4,40,2539,649984,7149824,1679320,2680,7.349000043761761,2.583632827884994,0.0015958840483052664,4.25757092156349,65,76.51242883740915,26.745092304142336,4.599868165795564,0.002115878714269944,1.7748226779513065,36.10441668389992,1.5659545961165577,0.0002452213797098572,33.511860832217415,41.60481153576596,3,4,3,8
67,103,77,256,4,40,2539,649984,7149824,1462360,2680,7.479987519373104,2.2498399960614415,0.0018326540660302524,4.8892365764927925,70,79.54690912671417,23.285783236993172,6.8503196675338485,0.004692687954740105,1.5835863677784798,36.320322364431156,1.5275093658500634,0.00023332848627596623,32.568502487482135,44.27761990629795,3,4,3,8
68,103,64,256,4,40,2539,649984,7149824,1195672,2680,7.358162662465538,1.8395406656163844,0.0022414173786791027,5.979753644812289,75,83.27690303985105,24.511815884760615,5.948523830514567,0.0035384935762199704,1.5721924426034097,37.229483737573716,1.3757065755909819,0.00018925685821242656,33.50873551240676,43.81634424729236,3,4,3,7
69,103,52,256,4,40,2539,649984,7149824,918648,2680,6.957978610597752,1.4133394052776684,0.0029173306859645916,7.782985430763469,80,87.1514599520212,23.0456714803955,7.042330874842998,0.004959442415076693,1.5769634279422464,37.43745804014017,1.3431579841066754,0.0001804073370269508,33.712853208325164,46.023829879677734,3,5,3,7
70,103,39,256,4,40,2539,649984,7149824,705496,2680,7.124710919905879,1.0854051792044113,0.0037987458468935332,10.13446426344019,85,90.1326801890508,21.007282492214774,8.90504001650657,0.007929973769558332,1.589549501892179,38.852698116112755,1.1412087534859816,0.0001302357419033028,34.44823371777516,43.69535050130672,4,5,3,7
71,103,26,256,4,40,2539,649984,7149824,445176,2680,6.743660435665162,0.684903012997243,0.006020090930328679,16.060668140241162,90,93.77360897275234,16.629234637269626,14.741384299033125,0.021730841105178034,1.591671477071941,38.766888072223665,1.1525389105042312,0.00013283459402262804,33.70372296778833,46.1154623889034,4,5,3,7
72,104,244,256,4,40,2539,649984,7149824,4518200,2680,7.293112687969318,6.951248030720756,0.0005931565667743792,1.5824496480899473,5,36.80683608435676,24.79071323532699,5.7605551425027866,0.00331839955498153,1.5740375341847543,36.85847968496417,1.4357407129884159,0.00020613513949324847,34.323863466514304,41.100538785792374,2,2,4,6
73,104,231,256,4,40,2539,649984,7149824,4294616,2680,7.322336059634209,6.6072641788105555,0.0006240371665359604,1.6648342948473158,10,39.93396201081313,24.45743018335576,5.985886679512253,0.003583083933996223,1.5805777977220714,36.08872156505153,1.5687867829832465,0.00024610919704629237,33.34051736585329,41.08240973958121,2,2,4,6
74,104,218,256,4,40,2539,649984,7149824,4109944,2680,7.425346249878049,6.3231464159117765,0.0006520770112682801,1.739640248139634,15,42.516850764438395,24.58041282491829,5.901730296286272,0.003483042049010324,1.5752716879360378,36.94179002615466,1.4220356975824748,0.00020221855251988758,33.74520823588167,42.906915765750774,2,2,4,6
75,104,205,256,4,40,2539,649984,7149824,3865656,2680,7.4268840238619,5.9473094722331625,0.0006932846585417843,1.8495758546544234,20,45.933550252425796,24.05988174294283,6.266223959822119,0.00392655627146488,1.5878086253069346,38.71407671818398,1.1595678457893466,0.0001344597588988546,34.582122946472765,42.909943625471485,2,2,4,6
76,104,192,256,4,40,2539,649984,7149824,3638936,2680,7.464667848234213,5.5985008861756596,0.0007364790147449694,1.9648116922089314,25,49.104537398403096,23.979595377043246,6.324413122977929,0.003999820135009544,1.5944787571206689,36.56298026432959,1.4854258820296606,0.00022064900510035957,33.653528144318514,40.53021217595127,2,2,4,7
77,104,180,256,4,40,2539,649984,7149824,3435256,2680,7.516642597698131,5.285139326506498,0.000780145642711926,2.081307477521326,30,51.95327884994092,23.356308822044905,6.794923300747084,0.004617098266303564,1.5708103911019866,39.24700065751023,1.090561011248248,0.00011893233192548014,34.04779041761176,43.85925459838969,2,3,4,6
78,104,167,256,4,40,2539,649984,7149824,3210360,2680,7.571371632473532,4.939136963371406,0.0008347973436000947,2.227109732241867,35,55.09875487844176,23.026852051395856,7.057605801444016,0.004980979964857622,1.75467917509377,37.02179437170337,1.4089976910211695,0.00019852744933029868,34.527589594514424,40.87556672904742,2,3,4,6
79,104,154,256,4,40,2539,649984,7149824,2993656,2680,7.656291719308655,4.605737987396613,0.0008952264388426726,2.3883251783104003,40,58.129654660030795,21.692023889064124,8.229980487578873,0.006773257882592898,1.6273779268376531,37.9226702170186,1.2701835652292752,0.00016133662893785526,33.84708835285038,44.637836898958476,2,3,4,6
80,104,141,256,4,40,2539,649984,7149824,2725400,2680,7.612870427012366,4.1930262898779045,0.0009833418947677406,2.6234035370954722,45,61.88157918292814,21.048277959280593,8.863109238212619,0.007855470536848987,1.5775231276638806,38.28124795926567,1.2188144712005484,0.00014855087152078724,33.87648830799025,44.65237783452994,2,3,3,6
81,104,128,256,4,40,2539,649984,7149824,2353112,2680,7.240522843639228,3.620261421819614,0.00113891731460296,3.038454608195445,50,67.0885325289126,20.20870612591358,9.762581977140163,0.009530800686038192,1.5836504539474845,37.051312808843385,1.4042174303191735,0.0001971826591612183,33.40031938733938,42.757929428625594,2,3,3,5
82,104,116,256,4,40,2539,649984,7149824,2080056,2680,7.062432942646439,3.200164927136668,0.001288426850046345,3.4373228413081187,55,70.90759157148484,19.791026276098933,10.243507416102378,0.010492944418374445,1.5744033129885793,37.18338555417066,1.383027202634614,0.00019127642432273257,33.36055481563146,42.550831990750034,2,3,3,5
83,104,103,256,4,40,2539,649984,7149824,1847896,2680,7.066064538825392,2.8429869042930287,0.0014502980687224822,3.869170126457333,60,74.15466450642701,18.540883686572055,11.829212013571183,0.013993025686201681,1.5723048718646169,36.66095881802548,1.4687641347526252,0.00021572680835356279,33.29381645582618,42.25084241298029,3,3,3,5
84,104,90,256,4,40,2539,649984,7149824,1654360,2680,7.2397706883725,2.545231882630957,0.0016199617979158103,4.321806620082691,65,76.86152833971857,18.05977618832816,12.502912463959822,0.01563228200814419,1.592614997643977,38.112188947507995,1.2427694037046135,0.00015444757907843206,33.44879996430907,43.868951376265514,3,3,3,5
85,104,77,256,4,40,2539,649984,7149824,1447704,2680,7.405021917822233,2.2272917487199684,0.0018512071528433989,4.938733332228135,70,79.75189319345483,15.08282849284632,17.614023659389648,0.031025382947353825,1.5805936511605974,37.56668396639833,1.323322819815636,0.00017511832854448062,33.66499879240977,42.89333510391489,3,4,3,5
86,104,64,256,4,40,2539,649984,7149824,1194584,2680,7.3514671130366285,1.8378667782591571,0.0022434588107659234,5.985199868740917,75,83.29212019764402,15.301625373849044,17.175869483359346,0.02950104925093949,1.5865932288579643,37.6660953383862,1.3082635245554732,0.0001711553449682309,34.43504081423084,45.183348214162315,3,4,3,5
87,104,52,256,4,40,2539,649984,7149824,914712,2680,6.928166752507044,1.4072838716029934,0.0029298839416122234,7.816475568266296,80,87.20651025815461,13.99846908228712,19.956140177596385,0.03982475307878767,1.572355065029114,37.7748920737284,1.291978826498145,0.00016692092881195243,33.96758580322119,41.68729162849524,3,4,3,5
88,104,39,256,4,40,2539,649984,7149824,704152,2680,7.111138041425556,1.0833374359984245,0.0038059964325884185,10.153807700610095,85,90.15147785455977,12.716342028724059,23.1303869706133,0.05350148014103176,1.5821922146715226,37.28443648695939,1.367030409893651,0.00018687721415740032,33.501068219698865,44.941115690015,4,4,3,5
89,104,26,256,4,40,2539,649984,7149824,446904,2680,6.769836701305784,0.6875615399763686,0.005996813633353025,15.998567925102483,90,93.74944054566937,11.020338380292891,28.117912879879032,0.0790617024720467,1.6125160302035515,37.67197445574152,1.3073783150151725,0.00017092380585719122,33.81210571026381,44.43429136243013,4,5,3,5
90,105,244,256,4,40,2539,649984,7149824,4662616,2680,7.526223697208788,7.173431961402127,0.0005747846273422473,1.5334361654487523,5,34.78698216907157,30.498631948453745,2.9858528619360096,0.000891531731313146,1.585667375009507,33.739402286984756,2.056032075429529,0.00042272678951950566,21.729930861802224,42.19302659967398,2,3,4,8
91,105,231,256,4,40,2539,649984,7149824,4433240,2680,7.558690488978003,6.8205371209137455,0.000604524005016647,1.6127762088224413,10,37.99511708260231,30.591820074988046,2.9539898331403682,0.0008726055934296661,1.7578517869114876,33.5493135735757,2.101523841211727,0.00044164024551812935,22.69093980842159,42.15969543998511,2,3,3,8
92,105,218,256,4,40,2539,649984,7149824,4233816,2680,7.6491430925272175,6.513723414730209,0.0006329986943220962,1.6887422599376072,15,40.78433259336174,30.80581352002066,2.882101848719964,0.0008306511066395036,1.579761454835534,33.496380943969044,2.1143698280201217,0.00044705597696418394,22.01141992111716,43.41797327166778,2,3,3,8
93,105,205,256,4,40,2539,649984,7149824,3987256,2680,7.6605077858576935,6.1343910003938555,0.0006721414426362391,1.7931690365504498,20,44.23280908732858,30.642896552342542,2.936670174014876,0.0008624031710948564,1.577730133663863,34.857722727420146,1.807647994295666,0.00032675912712811444,23.158860674450764,43.72115752689129,2,3,3,8
94,105,192,256,4,40,2539,649984,7149824,3746936,2680,7.686211763161349,5.764658822371012,0.0007152510744779201,1.908178842659709,25,47.59401070571807,30.81147087986545,2.8802252673768263,0.0008295697590835911,1.603161009028554,34.418968367193585,1.9013040865217368,0.00036149572294242563,22.666700246514743,42.87929924043227,2,3,4,8
95,105,180,256,4,40,2539,649984,7149824,3546008,2680,7.758977725263665,5.455531213076014,0.0007557794567863355,2.0163022756857854,30,50.40426169930896,29.55405943849143,3.328871477676343,0.0011081385314887077,1.5792804681695998,35.13647533408721,1.750556906781836,0.000306444948388159,23.17843847203777,44.24715717115836,2,3,3,8
96,105,167,256,4,40,2539,649984,7149824,3297336,2680,7.776497418711219,5.072949487987397,0.0008127773451052608,2.168363794287267,35,53.88227738193276,30.408650993621013,3.016945398866254,0.0009101959539740261,1.594698605127633,33.67670260253738,2.070927379348743,0.0004288740210536252,21.599365067485717,45.04924383102533,2,3,3,8
97,105,154,256,4,40,2539,649984,7149824,3069688,2680,7.8507439783532735,4.722713174478141,0.0008730528965810206,2.3291696094195893,40,57.06624386838054,28.67955895255131,3.681476667728406,0.001355327045502865,1.611470767762512,33.00465163508657,2.237522536438639,0.0005006507101070802,21.279999411480528,44.59667381831192,2,4,3,8
98,105,141,256,4,40,2539,649984,7149824,2788024,2680,7.787798289939357,4.289373276880662,0.0009612542790162495,2.5644772067959245,45,61.005697482903074,28.799646452294926,3.630928336852017,0.0013183640587354957,1.5968045219779015,35.53517835389023,1.6720185151583096,0.0002795645915032198,26.08420441713271,44.54075586342108,2,4,3,8
99,105,128,256,4,40,2539,649984,7149824,2426808,2680,7.467285348562426,3.733642674281213,0.0011043312861998148,2.946184452993397,50,66.05779387017078,27.7759882293914,4.085080212488792,0.0016687880342467476,1.6713471603579824,34.285422739057296,1.930762534900699,0.00037278439661761725,24.494906524190647,43.95566859523711,2,4,3,8
100,105,116,256,4,40,2539,649984,7149824,2152440,2680,7.308198992272277,3.311527668373375,0.0012450985857910093,3.3217297578562004,55,69.8952030147875,27.55462285754514,4.19052906410322,0.0017560533837093814,1.574141467921436,35.40949428751418,1.6963883670199644,0.00028777334917606616,25.566627383035037,44.448801982296985,2,4,3,8
101,105,103,256,4,40,2539,649984,7149824,1910552,2680,7.305651257853218,2.9393831232768806,0.001402735963219007,3.7422818117486463,60,73.27833524293744,26.608920698128358,4.672550083076225,0.002183272427885564,1.60463529964909,35.59848408514032,1.6598765740240933,0.00027551902409939615,28.862095619097396,42.45027463118879,3,4,3,8
102,105,90,256,4,40,2539,649984,7149824,1705656,2680,7.464251017460943,2.624150748326113,0.0015712429704465613,4.191832350720192,65,76.14408410612624,25.737673150102236,5.165547298074947,0.0026682878888649383,1.5785161079838872,35.468195468683405,1.6849624486841746,0.000283909845347577,25.092380298010635,42.28356711494854,3,4,3,8
103,105,77,256,4,40,2539,649984,7149824,1489976,2680,7.6212436637800955,2.2923271957463567,0.0017986866902554135,4.7986168904734035,70,79.1606618568513,21.10579577841781,8.804611772175724,0.0077521188458735315,1.757297789677978,34.73582210020523,1.833195974836132,0.00033606074821553955,24.43377004191107,43.93531403388172,3,4,3,8
104,105,64,256,4,40,2539,649984,7149824,1234456,2680,7.596839306813706,1.8992098267034265,0.002170996779148062,5.791882416222206,75,82.73445612087794,22.667711209079066,7.3555379336175175,0.005410393829288626,1.5898207346908753,37.05334021679587,1.403889704608384,0.00019709063027054154,33.65143115347085,43.96056809593679,3,5,3,8
105,105,52,256,4,40,2539,649984,7149824,945560,2680,7.161814160632593,1.4547435013784955,0.002834299251237362,7.561470451372731,80,86.77505907837731,20.74758716740347,9.175307786818337,0.008418627298284923,1.577544969972223,37.52035864663124,1.3303994836922735,0.00017699627862086676,31.40002836725435,42.78699968921176,3,5,3,8
106,105,39,256,4,40,2539,649984,7149824,722552,2680,7.296957211096636,1.1116458251280033,0.003709075609783102,9.895237989791738,85,89.8941288624727,18.448216733146136,11.956089663917268,0.014294808005162935,1.57671370357275,38.155992935074885,1.2365177451070262,0.00015289761339645644,33.521992369141074,45.00807434674082,4,5,3,8
107,105,26,256,4,40,2539,649984,7149824,464888,2680,7.0422637622322535,0.7152299133517133,0.0057648293782588496,15.379669942007537,90,93.49790987862079,14.857762846249754,18.07639645058293,0.03267561086386471,1.5722644990310073,37.488564257644036,1.3352782874110802,0.00017829681048314678,33.349701376520244,46.02232324292668,4,6,3,8
108,106,244,256,4,40,2539,649984,7149824,4750040,2680,7.667340310823288,7.307933733753447,0.0005642057751092623,1.505213429781644,5,33.56423878405958,30.875197809491155,2.8591708637459865,0.0008174858028093972,1.5899521219544113,36.66092486220574,1.4687698766155504,0.00021572849504532585,33.250856015387996,42.192800193771426,1,2,4,6
109,106,231,256,4,40,2539,649984,7149824,4477432,2680,7.634038011351914,6.888526486805829,0.0005985573873595401,1.5968581990748267,10,37.37703193812882,30.545854047783816,2.9696638863405713,0.0008818903597835384,1.5797381778247657,36.021865788238735,1.5809084129027529,0.00024992714099867014,33.26120546496414,42.38367650581034,2,2,4,6
110,106,218,256,4,40,2539,649984,7149824,4267512,2680,7.7100209213336175,6.565564690823159,0.0006280005773856055,1.6754080597781564,15,40.313048265244014,30.528100754570506,2.9757398591895416,0.0008855027709569393,1.5613642600364988,36.36599362284142,1.5194986510186168,0.00023088761504473965,33.531348784317274,42.469069292258716,2,2,4,6
111,106,205,256,4,40,2539,649984,7149824,4025272,2680,7.733545951450062,6.19287859393462,0.000665793516562359,1.7762337551350567,20,43.701103691503455,30.075329532669,3.1349709683504465,0.0009828042972400137,1.5645470907911658,36.24000375060187,1.5416997872372824,0.00023768382339674823,33.82315460068936,41.944474050916156,2,2,4,6
112,106,192,256,4,40,2539,649984,7149824,3797848,2680,7.790649205724038,5.842986904293029,0.0007056627858724203,1.8825987769916015,25,46.88193723369974,30.29882621141192,3.055333975223953,0.0009335065700157803,1.5772367320023473,37.445695841751714,1.3418847208955342,0.00018006546041728856,33.87931194627478,43.411492841254855,2,2,4,7
113,106,180,256,4,40,2539,649984,7149824,3596440,2680,7.869327381733841,5.533120815281607,0.0007451813459977088,1.9880281611816129,30,49.69890167925812,29.56442146248033,3.3249025947379747,0.0011054977264495316,1.5797955258749428,37.743588799853555,1.2966434185414437,0.00016812841548468412,33.812246389250454,43.696988625481545,2,2,4,6
114,106,167,256,4,40,2539,649984,7149824,3357400,2680,7.9181534528422475,5.16535791650256,0.000798236730803598,2.1295716923810093,35,53.04220075906763,29.390213068958523,3.392261680619095,0.0011507439309796687,1.5890580862760544,36.514825075844804,1.4936840593301757,0.00022310920690970715,34.004253533911665,41.1609912501453,2,3,4,7
115,106,154,256,4,40,2539,649984,7149824,3116920,2680,7.97154007866887,4.7953795785742415,0.0008598231587592881,2.2938747224824505,40,56.40564019477962,27.98901460374899,3.9861099134254974,0.0015889072241909023,1.7578435027971864,37.41590127677084,1.3464955924779334,0.00018130503805625009,33.77692689201524,43.3914772438212,2,3,4,6
116,106,141,256,4,40,2539,649984,7149824,2848984,2680,7.95807809519021,4.383160200866483,0.0009406862235800552,2.509604827545539,45,60.15308908303197,27.657070014787717,4.141393516507384,0.00171511402585694,1.5743931238539515,36.63425155999909,1.4732872213945418,0.00021705752367244495,33.51132900106948,45.39465575771621,2,3,4,6
117,106,128,256,4,40,2539,649984,7149824,2514072,2680,7.735796573454116,3.867898286727058,0.001065999700883666,2.8439217333473343,50,64.8372883024813,26.71551884917801,4.6155563503100145,0.0021303360422887103,1.5870511182583869,37.038197799055006,1.406339289646543,0.00019777901976035435,33.56228713610801,42.32689426765518,2,3,4,6
118,106,116,256,4,40,2539,649984,7149824,2242424,2680,7.613722481020223,3.4499679992122885,0.0011951352643389476,3.188435371722743,55,68.63665455261557,26.184468733261074,4.906553778797048,0.0024074269984227592,1.5708893928676846,36.74190521462863,1.4551398665520272,0.00021174320312290516,33.24485350471715,41.275641977024954,2,3,4,6
119,106,103,256,4,40,2539,649984,7149824,1978072,2680,7.563837150166146,3.04326260338716,0.0013548546261207884,3.614541836697552,60,72.333976332844,25.203021288669525,5.4934975550864555,0.0030178515387740868,1.6005590371787546,37.3033871560844,1.3640511064603793,0.00018606354210357854,33.20893219333715,44.3104791705103,2,3,3,5
120,106,90,256,4,40,2539,649984,7149824,1734840,2680,7.591965340685309,2.669050315084679,0.0015448110488575316,4.121316086786101,65,75.73590622650292,25.00272262566022,5.62165084752737,0.00316029582515052,1.5911208153702319,36.92062594755546,1.425504861070176,0.00020320641089347017,33.52694887289631,42.76790333334878,2,3,3,6
121,106,77,256,4,40,2539,649984,7149824,1515352,2680,7.751042183495906,2.331368156754628,0.0017685659833490833,4.718259519900327,70,78.80574402950339,21.066139741691565,8.844901746472827,0.007823228690475807,1.588767397217452,38.81673851049997,1.1459431541364125,0.00013131857125121095,34.22405574049393,45.645268214874726,3,3,4,6
122,106,64,256,4,40,2539,649984,7149824,1271224,2680,7.823109491925955,1.9557773729814887,0.0021082043762546965,5.624362032183155,75,82.22020570016828,21.655451703941583,8.26470610957522,0.006830536707764997,1.568886909168214,38.548665831977715,1.1818618346730467,0.000139679739625674,33.783101753879286,44.96458408995076,3,4,3,5
123,106,52,256,4,40,2539,649984,7149824,1001240,2680,7.583542884842609,1.540407148483655,0.002676680915664576,7.140969198194239,80,85.99629865014859,20.07940190784263,9.909001738530202,0.00981883154541946,1.5817260541953142,37.81138535259319,1.2865620369524475,0.00016552418749272307,33.00054457534553,46.228328013005274,3,4,3,5
124,106,39,256,4,40,2539,649984,7149824,744728,2680,7.520909706021955,1.1457635880267822,0.003598629298213576,9.600584374429323,85,89.58396738157471,18.008584043635132,12.576818624401895,0.015817636671110236,1.574094574898481,37.88791050939813,1.275276845551901,0.00016263310328008072,33.99472918562564,44.71528913642666,3,4,3,5
125,106,26,256,4,40,2539,649984,7149824,497720,2680,7.5396128094040655,0.7657419259551005,0.0053845535642529935,14.365153098127461,90,93.03870976404454,15.010221998781754,17.7618787091419,0.03154843352782684,1.5768577740527687,37.97866174211095,1.2620219626593256,0.00015926994342344966,34.23881685465973,46.198857496506186,4,5,3,5
126,107,244,256,4,40,2539,649984,7149824,4858904,2680,7.843064585902543,7.475420933438362,0.0005515647150056885,1.4714890436197134,5,32.04162787783308,32.26464569485831,2.4365072907520617,0.0005936567777887951,1.5898314421065156,36.400929808634494,1.513399233138602,0.0002290377238864508,33.40739773397442,42.86390809231517,2,3,4,7
127,107,231,256,4,40,2539,649984,7149824,4597496,2680,7.838747572501019,7.073244879873966,0.0005829260101585733,1.5551561110656758,10,35.69777381932758,32.277174433198255,2.4329953468777488,0.0005919466357928778,1.5606410489417617,36.67426011826289,1.4665166365217717,0.00021506710451951302,33.45588923117439,41.03741930955726,2,3,4,6
128,107,218,256,4,40,2539,649984,7149824,4358040,2680,7.873575885904658,6.704841965340686,0.0006149553468990647,1.6406054097713652,15,39.04689122417559,32.405834911766256,2.397221998469989,0.0005746673309948448,1.7444107001647355,36.532951135700394,1.4905702302061759,0.0002221799611176892,33.24183373182089,41.39134789452435,3,3,4,7
129,107,205,256,4,40,2539,649984,7149824,4115960,2680,7.90778009394903,6.332402028357621,0.0006511239176279652,1.7370975422501675,20,42.432708833112535,32.21078049123588,2.451664143808922,0.0006010657074038334,1.6204489902593198,36.39105870192583,1.5151201181437066,0.00022955889724037996,33.45478522532362,41.651790104462684,3,3,4,6
130,107,192,256,4,40,2539,649984,7149824,3889048,2680,7.977730733884732,5.9832980504135485,0.0006891146625086653,1.8384509525210282,25,45.60638135987683,32.335936881018974,2.4165910123562475,0.0005839912121000993,1.5792594579979773,36.830511295325216,1.4403712202273526,0.00020746692520592328,34.04024847686049,43.32295493161596,3,3,4,7
131,107,180,256,4,40,2539,649984,7149824,3673336,2680,8.037582600323837,5.651425265852698,0.0007295820474903466,1.9464116541476195,30,48.62340667406638,32.12513750025039,2.4759571537916814,0.0006130363827412203,1.5825279722921546,37.522845124176676,1.330018689652745,0.00017689497148256047,33.91422469818445,42.89993180953004,3,3,4,6
132,107,167,256,4,40,2539,649984,7149824,3453432,2680,8.144637074806669,5.313103091768412,0.000776039603501676,2.070353202263719,35,51.69906280210534,31.49542600021442,2.6621265697571515,0.0007086917873406976,1.5872995741665368,36.579344615470305,1.4826299511856622,0.00021981915721527994,33.978841759695804,43.21650538630156,3,3,4,6
133,107,154,256,4,40,2539,649984,7149824,3203064,2680,8.19185383344501,4.927912071681765,0.000836698860840745,2.232182685079037,40,55.200799348347594,30.060212232823147,3.140431958975,0.0009862312888951554,1.594231904949993,37.16091223499038,1.3866101925796366,0.00019226878261657368,33.592161604981214,45.31143500195798,3,3,4,7
134,107,141,256,4,40,2539,649984,7149824,2970648,2680,8.297922619895587,4.570340192989366,0.0009021600674330988,2.406823023124921,45,58.451452791005764,29.808681783598747,3.23270377833641,0.00104503737184705,1.5985516118817031,37.40238674414869,1.3485922599968396,0.00018187010837233836,33.89351422992656,44.191708274763116,3,3,4,6
135,107,128,256,4,40,2539,649984,7149824,2701816,2680,8.313484639621898,4.156742319810949,0.000991925430895368,2.6463030791141957,50,62.211433456264096,28.886914548834003,3.5946306459482704,0.0012921369480790484,1.5820227097719908,37.056804579428906,1.4033298755699888,0.00019693347396672803,33.3247926022745,43.23475882594528,3,4,4,7
136,107,116,256,4,40,2539,649984,7149824,2419384,2680,8.214556368920698,3.7222208546671918,0.001107719981615155,2.9552249663550723,55,66.16162859393462,28.349024351337462,3.824272076507159,0.0014625056915152379,1.58154257806018,37.43610318918542,1.34336751023326,0.00018046362675503078,33.477326061011,46.066970802440494,3,4,4,7
137,107,103,256,4,40,2539,649984,7149824,2135096,2680,8.164272303521377,3.284843934619929,0.0012552128803576044,3.3487131257798244,60,70.1377824125461,27.396071221768317,4.267725117455578,0.001821347767816123,1.5724516632035375,38.09151662439834,1.2457307039366305,0.00015518449867304535,33.48054456889801,44.88633713007339,3,4,4,6
138,107,90,256,4,40,2539,649984,7149824,1801432,2680,7.8833836593584525,2.771502067743206,0.0014877053366432926,3.968966910768766,65,74.80452665687994,26.11295592384653,4.947117252856166,0.0024473969113507133,1.5676715378649533,37.54525463224955,1.3265916775142443,0.00017598454788500572,33.21097808462459,42.57453492921512,3,4,4,6
139,107,77,256,4,40,2539,649984,7149824,1553464,2680,7.945985483598717,2.3900034462386768,0.001725176766246273,4.602503823712683,70,78.27269594328476,21.63889482516072,8.280475160827883,0.006856626888908757,1.5702658421359956,37.56403040137959,1.3237271606183056,0.00017522535957586015,33.49172975371314,43.34168924253282,4,4,4,6
140,107,64,256,4,40,2539,649984,7149824,1321272,2680,8.13110476565577,2.0327761914139426,0.002028348439988133,5.41131878977228,75,81.52021644169143,22.360937231884247,7.619967839963977,0.005806390988208528,1.7572853062301874,38.703293481528895,1.161008303798022,0.000134794028148796,33.64557325150441,44.6698287282292,4,4,3,6
141,107,52,256,4,40,2539,649984,7149824,1084760,2680,8.216135971157634,1.6689026191413943,0.0024705925734724733,6.59115749105793,80,84.82815800780551,19.7955799848159,10.238138510248005,0.010481948015502325,1.5697364499792459,37.955413368580594,1.2654043747628863,0.0001601248231669051,33.812863944856225,46.18035822653406,4,5,3,6
142,107,39,256,4,40,2539,649984,7149824,789592,2680,7.973985316246049,1.214786825521859,0.0033941579955217376,9.055086677676572,85,88.95648340434674,18.037174584790108,12.535488729677843,0.015713847769188025,1.579541275743395,37.84054304927411,1.2822504127537115,0.00016441661210070632,33.510720719496845,46.08149273171581,4,5,3,6
143,107,26,256,4,40,2539,649984,7149824,542040,2680,8.21098554852001,0.8339282197715636,0.004944284554645414,13.190583720758616,90,92.41883436571305,14.302469365112492,19.269770031384983,0.037132403706246285,1.5741247981786726,38.606677142250874,1.1739947178256347,0.00013782635974824914,33.768968377813174,45.95616139462304,5,6,3,6
144,108,244,256,4,40,2539,649984,7149824,4708088,2680,7.599622931449712,7.243390606538007,0.000569233200398973,1.5186258200781293,5,34.15099448601812,31.85002705099153,2.5556339418863603,0.0006531264844921616,1.5846749898046255,36.77024290113179,1.4504002132578053,0.00021036607786182872,34.00533032375418,41.008165019282885,2,3,4,8
145,108,231,256,4,40,2539,649984,7149824,4452728,2680,7.59191760058243,6.850519397400552,0.0006018782193747293,1.6057176634189199,10,37.72255093272226,31.45104171668154,2.6757646639729846,0.0007159716536966458,1.5854002749547362,35.49411084624643,1.6799426565149822,0.0002822207329178615,31.72628701108665,40.5490223197371,2,3,4,8
146,108,218,256,4,40,2539,649984,7149824,4255992,2680,7.689207988408353,6.547841177628988,0.0006297004317677288,1.6799430074116681,15,40.47417111246375,31.311006280559507,2.7192534360010736,0.0007394339249203644,1.57316216873005,36.860232944061444,1.4354509359436238,0.00020605193895014258,33.68700246862688,41.513949354751794,2,3,4,8
147,108,205,256,4,40,2539,649984,7149824,4010904,2680,7.705941459572138,6.170773434423001,0.0006681785452855516,1.7825966415551207,20,43.90205968706363,30.921567697148785,2.843947763235917,0.0008088038880014575,1.5917141740210359,37.46196566210596,1.3393735459101768,0.0001793921495484,33.65906942431044,44.2607747045903,2,3,4,8
148,108,192,256,4,40,2539,649984,7149824,3782808,2680,7.759797164237889,5.819847873178417,0.0007084684181697828,1.890083768459832,25,47.092292062014394,31.001222248454052,2.817986366034189,0.0007941047159154576,1.5714039937593043,36.00178154198205,1.584568152156584,0.00025108562288289306,34.029993942004324,42.386003249540714,2,3,4,8
149,108,180,256,4,40,2539,649984,7149824,3564280,2680,7.798958470088836,5.483642674281213,0.0007519050130741692,2.0059658612679137,30,50.148702961079884,30.308452372302426,3.0519497686340222,0.0009314397390265261,1.5900899646803737,37.442633544461856,1.342357899185737,0.00018019247295063452,33.720876203108844,44.90333604595556,2,3,3,7
150,108,167,256,4,40,2539,649984,7149824,3303256,2680,7.790459254787,5.082057404489957,0.000811320709021644,2.164477715320883,35,53.79947814100039,30.193997592627596,3.092431727536699,0.000956313398947561,1.5811967100016775,36.706399438380785,1.461100293793866,0.00021348140685245218,33.75956429148739,42.2922949405117,2,3,4,8
151,108,154,256,4,40,2539,649984,7149824,3035032,2680,7.76211106734935,4.669394938952343,0.0008830219912014108,2.355765606425237,40,57.55095510043324,28.55000858632481,3.7367975598560235,0.0013963656003345931,1.578487113118172,36.01663673517424,1.5818604331514774,0.0002502282429970179,33.17327801926887,43.89331292049986,2,4,4,8
152,108,141,256,4,40,2539,649984,7149824,2735128,2680,7.640043687272869,4.20799281213076,0.000979844453349167,2.614072906277147,45,61.74551988972036,28.323530705736903,3.835513049817823,0.0014711160355322817,1.5732092279940844,37.24920225473619,1.372587018850487,0.0001883995124316867,33.565318767295885,43.649438299305245,2,4,3,8
153,108,128,256,4,40,2539,649984,7149824,2423544,2680,7.457242024419062,3.728621012209531,0.0011058185863347231,2.950152338888834,50,66.10344534354971,27.469322510738564,4.231885166400827,0.0017908852061603356,1.7905177143402398,37.16679197935471,1.3856718713541474,0.00019200865350621049,33.27748323303147,42.85553363348183,2,4,3,7
154,108,116,256,4,40,2539,649984,7149824,2177848,2680,7.3944670043867395,3.3506178613627413,0.0012305725652111627,3.2829765897344534,55,69.53983762397507,27.11465753830292,4.40825920538536,0.001943274922186477,1.6324415407143533,37.28824772538565,1.3664307089810261,0.00018671328824463893,33.63986655075848,44.21347435619348,3,4,4,8
155,108,103,256,4,40,2539,649984,7149824,1969304,2680,7.530309693060107,3.0297730405671524,0.001360886892018703,3.630634985761467,60,72.4566087221168,25.790037530805325,5.134499589355096,0.002636308603308765,1.5802865680307145,36.928037197440915,1.4242890654228684,0.00020285993418831474,33.58980700324421,43.94098364081557,3,4,3,7
156,108,90,256,4,40,2539,649984,7149824,1755672,2680,7.683129841144807,2.7011003347774714,0.0015264810283469805,4.072414437320866,65,75.4445424111139,24.81370484332809,5.7453270777749355,0.003300878323061388,1.564508724026382,37.219961195873225,1.3772156215774853,0.00018967228683170593,33.49593917548888,45.36372840927306,3,4,3,7
157,108,77,256,4,40,2539,649984,7149824,1514168,2680,7.744986010444853,2.329546573454116,0.0017699489092359634,4.7219489515034,70,78.82230387768986,22.253635740379416,7.714685266337752,0.00595163687586488,1.5796199492178857,37.23912541569036,1.3741803345939452,0.0001888371591984727,33.62922962742044,44.96588332303939,3,5,3,7
158,108,64,256,4,40,2539,649984,7149824,1230936,2680,7.5751772351319415,1.8937943087829854,0.002177204988724028,5.808444955708501,75,82.78368810197286,22.179239056380712,7.781047153739117,0.006054469480871161,1.564115690067411,38.88697018332188,1.1367147379640679,0.00012921203955047192,34.72804186645886,44.2374065863291,3,5,3,6
159,108,52,256,4,40,2539,649984,7149824,980088,2680,7.4233344442088045,1.5078648089799134,0.0027344483352515284,7.295083706769188,80,86.29213810018261,20.607550674332344,9.324433720821208,0.008694506421398764,1.6006867471151056,39.53918865056351,1.0544853913303103,0.00011119394405290377,33.07115301889353,45.977836111705784,4,5,3,6
160,108,39,256,4,40,2539,649984,7149824,761208,2680,7.687339049292574,1.1711180582906655,0.003520719698163971,9.392733654927431,85,89.35347219735759,18.603795272839424,11.74384299197007,0.013791784822004454,1.5684835789725187,39.46378265494708,1.0636796909598902,0.00011314144849605275,34.41889354060137,45.90609588316142,4,5,3,6
161,108,26,256,4,40,2539,649984,7149824,486456,2680,7.368982337080014,0.7484122686096889,0.005509234134227967,14.697781505418783,90,93.19625210354829,15.68557650536939,16.43316344301798,0.027004886074494246,1.5879911021329463,38.99814237755565,1.1222584423338369,0.00012594640113895697,33.394795422305876,45.384365087397484,4,6,3,6
162,109,244,256,4,40,2539,649984,7149824,4828440,2680,7.793890714686949,7.428552087435999,0.0005550446935242025,1.4807730861313384,5,32.46770829603638,35.19767724398031,1.738265608670067,0.0003021567326285118,1.5686929980292916,38.295644184750216,1.2167960486974287,0.00014805926241256753,33.82493923580402,43.38316260585163,2,3,4,7
163,109,231,256,4,40,2539,649984,7149824,4570904,2680,7.793408114794487,7.032333103584088,0.0005863172799078694,1.5642034923507473,10,36.06969905832647,35.394702262695716,1.699279768896762,0.0002887551732981832,1.5738673298619688,37.670143017368424,1.3076540075880887,0.00017099590035611888,33.235557751002695,44.16955451582037,2,3,4,7
164,109,218,256,4,40,2539,649984,7149824,4334776,2680,7.831545324136137,6.669050315084679,0.0006182557068692822,1.6494102578772236,15,39.37226986286655,34.46173576965966,1.891965494515308,0.00035795334324365533,1.579623328987509,37.91175580219379,1.27178064102245,0.00016174259988794738,33.60381684533743,44.36692591753766,2,3,3,7
165,109,205,256,4,40,2539,649984,7149824,4070360,2680,7.820171183200607,6.262246455297361,0.0006584184199923349,1.7565581422773415,20,43.07048677002399,34.49434699922811,1.8848754158693317,0.0003552755333348586,1.7484573181718588,39.34611066315582,1.078187932787171,0.00011624892184078731,33.30402500343575,45.07562308715191,2,3,3,7
166,109,192,256,4,40,2539,649984,7149824,3838136,2680,7.873293291322042,5.904969968491532,0.0006982556115781202,1.862837585744747,25,46.31845483189516,34.89736477536778,1.7994167599781712,0.0003237900676090339,1.5834135748445992,39.36998146596874,1.0752288947235897,0.00011561171760485126,33.83149774509994,44.37157198420887,2,3,3,7
167,109,180,256,4,40,2539,649984,7149824,3615192,2680,7.910358408822371,5.5619707562032294,0.0007413160905423557,1.977716259606682,30,49.43662948906155,33.945903462073716,2.007727774134486,0.00040309708150310173,1.5934776728972795,38.21800828585155,1.2277207208500465,0.0001507298168404558,33.77786960267675,45.78129102581558,2,3,3,7
168,109,167,256,4,40,2539,649984,7149824,3372024,2680,7.952642961418635,5.187856931862938,0.0007947748889094502,2.1203360355679557,35,52.83766425579147,34.2704361427066,1.9340967397977489,0.00037407301988962813,1.6075271940790112,38.01489337143468,1.2567686288884734,0.00015794673865582133,34.294319533024684,46.070863105457434,2,3,3,6
169,109,154,256,4,40,2539,649984,7149824,3069784,2680,7.85098949888237,4.722860870421425,0.0008730255939831597,2.3290967703265117,40,57.06490117798704,32.21528703815416,2.450392463617118,0.0006004423225751568,1.5986588899977507,37.09909141821788,1.3965144348912844,0.00019502525668597232,33.162964038269884,45.85412537254569,2,3,3,7
170,109,141,256,4,40,2539,649984,7149824,2699864,2680,7.541540618828544,4.153739168964159,0.0009926425923676156,2.648216354601565,45,62.238734827598556,32.42937004105039,2.3907353212107707,0.0005715615376084767,1.5645709917880595,37.901118525911436,1.273339096146817,0.0001621392453775993,33.991426116791715,46.66505924365216,2,3,3,7
171,109,128,256,4,40,2539,649984,7149824,2401336,2680,7.388908034659314,3.694454017329657,0.0011160454013932244,2.977435894018996,50,66.4140543879122,31.15752149030786,2.7677313020282512,0.0007660336560227,1.56693008961156,36.67594129535999,1.4662328157848763,0.0002149838670084447,33.164268152731346,45.083674963843706,2,3,3,6
172,109,116,256,4,40,2539,649984,7149824,2179352,2680,7.3995735491844465,3.3529317644742025,0.0012297233306046934,3.2807109636258853,55,69.51880214114361,30.984428921698193,2.82343994015067,0.0007971813095638017,1.569860814139247,37.263576925548875,1.3703173412531913,0.0001877769615739215,33.633634945585904,42.75450791677436,3,3,3,6
173,109,103,256,4,40,2539,649984,7149824,1965176,2680,7.514524868364198,3.023422115005908,0.0013637455372953872,3.6382614076296473,60,72.51434440903721,29.74632904381962,3.255993639306193,0.0010601494579202387,1.5871254717931151,36.452634905085404,1.5044170776453232,0.0002263270743510894,33.26120837159343,42.5414557185273,3,4,3,6
174,109,90,256,4,40,2539,649984,7149824,1739576,2680,7.612690910682246,2.676336648286727,0.0015406052969229283,4.110095793457716,65,75.66966683375702,28.918782124104236,3.58146650450189,0.0012826902322868989,1.5947055472061038,38.14586162035826,1.237960874127388,0.00015325471258702465,33.38047157708571,45.916964364890696,3,4,3,6
175,109,77,256,4,40,2539,649984,7149824,1498488,2680,7.664782637606584,2.305422902717605,0.0017884694438660836,4.771358863067305,70,79.04160997529449,25.23498230336623,5.47332056377113,0.002995723799379993,1.5870760362595315,36.43147008105158,1.5080873461578455,0.0002274327443641413,33.69986133047349,46.03243340621398,3,4,3,7
176,109,64,256,4,40,2539,649984,7149824,1225240,2680,7.5401240645923595,1.8850310161480899,0.002187326564591427,5.835447749012438,75,82.86335439865373,25.33206480674031,5.412485671624172,0.002929500114553696,1.581653179600835,37.07828443371484,1.3998637849801292,0.00019596186164988935,33.17296970564239,45.58594164639239,3,4,3,6
177,109,52,256,4,40,2539,649984,7149824,941368,2680,7.130063319901839,1.448294111855061,0.00284692065164739,7.595142388523936,80,86.83368989222672,23.408253847455146,6.754408264056691,0.004562203099755733,1.7620060401968662,36.66935105626962,1.4673457117440076,0.0002153103437773528,33.701444686093524,41.665161812040715,3,4,3,5
178,109,39,256,4,40,2539,649984,7149824,723224,2680,7.303743650336798,1.1126796967309964,0.0037056292379677664,9.88604360474763,85,89.88473002971821,20.489755787439286,9.451749666160469,0.008933557175176451,1.5866099949926133,37.47359912441472,1.3375808542712637,0.00017891225417130438,33.55930186957328,44.84618405065825,4,5,3,6
179,109,26,256,4,40,2539,649984,7149824,454968,2680,6.891992607628685,0.6999679992122882,0.005890524168732746,15.715004132158745,90,93.63665455261557,16.26240612657699,15.377286065466183,0.023646092673918043,1.6498790681362152,39.29084948918623,1.085069423506873,0.00011773756538295375,34.22027445855864,46.05500088870043,4,5,3,6
180,111,244,256,4,40,2539,649984,7149824,4713816,2680,7.608868858915669,7.252203131153998,0.0005685414958920755,1.5167804598227848,5,34.070880625872746,32.38679898005379,2.4024814937638106,0.0005771917327877591,1.5864887898787856,35.57462403800983,1.6644425058601098,0.0002770368855313881,30.99896530741559,42.81858248002182,1,3,4,8
181,111,231,256,4,40,2539,649984,7149824,4429400,2680,7.552143274868757,6.814629283182355,0.0006050480877771256,1.6141743802772384,10,38.04882469834222,32.15273040006062,2.4681041370707715,0.0006091538031425858,1.5853313370607793,35.63082902501981,1.6537069391259134,0.00027347466405131974,32.946674604392705,40.353555794864036,1,3,4,8
182,111,218,256,4,40,2539,649984,7149824,4195352,2680,7.579651022037861,6.454546573454116,0.0006388021791735235,1.7042250566817754,15,41.322303877689855,31.710062121643144,2.597149166476769,0.0006745183792930977,1.5815185839310284,36.0148641266288,1.5821832907491076,0.00025033039655256747,32.48229106747085,40.35342527039188,1,3,4,8
183,111,205,256,4,40,2539,649984,7149824,3959128,2680,7.606466920911824,6.091116089011422,0.0006769167352002764,1.8059087758718586,20,44.62621737262344,31.657949090127126,2.6127782100429346,0.0006826609974875163,1.577531381044537,37.333735112076205,1.3592935132812878,0.00018476788552485861,33.86287830222251,42.670998768284186,1,3,4,8
184,111,192,256,4,40,2539,649984,7149824,3735960,2680,7.663696337140607,5.747772252855455,0.0007173524341802374,1.9137849441642845,25,47.74752497404132,31.894202518146123,2.5426692687242567,0.0006465167010114745,1.5892930827103555,34.9738934816451,1.783632289653898,0.0003181344144696007,30.726190194217544,42.047002503977694,1,3,4,8
185,111,180,256,4,40,2539,649984,7149824,3533944,2680,7.732580631044593,5.4369707562032294,0.0007583594986225022,2.023185426820572,30,50.572993125425185,31.05884269730457,2.7993542790627375,0.0007836384379706859,1.6149551672860976,37.76111585076372,1.2940295905855719,0.00016745125813110625,33.89996907906081,45.14576385511673,2,3,4,8
186,111,167,256,4,40,2539,649984,7149824,3302520,2680,7.788723458950551,5.080925068924773,0.0008115015200513547,2.1649600910819617,35,53.80977210068388,31.183891839672857,2.759341216073378,0.0007613963946721308,1.611535616684705,35.71572933158937,1.6376215074081324,0.00026818042015256836,33.01436830277398,42.24824739588763,2,3,4,8
187,111,154,256,4,40,2539,649984,7149824,3082392,2680,7.883234528370409,4.742258270972824,0.0008694546313382594,2.3195699962885965,40,56.88856117297433,29.874207118864252,3.2084083952124094,0.0010293884430469468,1.5941151389852162,37.686160791328504,1.3052447661734652,0.0001703663899623224,34.17422555452024,45.67609735154105,2,3,4,8
188,111,141,256,4,40,2539,649984,7149824,2812088,2680,7.855016354794287,4.326395726664041,0.0009530284969744902,2.54253209714632,45,60.66912975759963,29.906125137370047,3.1966401000306988,0.0010218507929124277,1.6098603238351643,36.64099869881778,1.472143226482023,0.00021672056792769,33.409968064465694,44.67586590609044,2,3,4,7
189,111,128,256,4,40,2539,649984,7149824,2529432,2680,7.783059275305238,3.891529637652619,0.0010595264075096702,2.8266519914352313,50,64.62245783952164,29.138452387720527,3.492025292531078,0.0012194240643676759,1.5905497879721222,36.903419372285605,1.4283315568446135,0.00020401310362781573,33.226985249585276,44.70898078390253,2,4,3,8
190,111,116,256,4,40,2539,649984,7149824,2277368,2680,7.732368160149937,3.5037293225679402,0.0011767970745176011,3.1395119278043775,55,68.14791524938236,28.791595682971806,3.6342953284936566,0.0013208102534710815,1.7718258169479668,36.62375469237176,1.4750687601879136,0.00021758278472823085,33.09559457861571,42.52351751384625,2,4,4,8
191,111,103,256,4,40,2539,649984,7149824,1994552,2680,7.626854085967643,3.0686170736510436,0.0013436601301946502,3.5846766592197143,60,72.10348114862687,27.48607762330929,4.22372971306605,0.001783989268903702,1.585084198974073,37.32647898394073,1.3604295315005235,0.0001850768510178734,33.802181661423525,46.57169459368828,2,4,3,7
192,111,90,256,4,40,2539,649984,7149824,1740696,2680,7.617592227911251,2.678059767625049,0.0015396140394416946,4.107451272364617,65,75.65400211249955,26.353992535516245,4.811720287618209,0.0023152652126276663,1.5784804490394888,38.73589780612777,1.1566583827548107,0.0001337858614396974,33.98305677130373,44.40466459116068,2,4,3,7
193,111,77,256,4,40,2539,649984,7149824,1518808,2680,7.768719661590871,2.3366852107128793,0.001764541666886137,4.707523268247204,70,78.75740717533746,23.777178029765675,6.473529009315994,0.004190657783445571,1.6122277611866591,37.60514843816431,1.3174755920596164,0.00017357419356728364,33.886858495430346,44.1837563626157,2,4,3,7
194,111,64,256,4,40,2539,649984,7149824,1270712,2680,7.8199586451358805,1.9549896612839701,0.0021090538217943956,5.626628221028841,75,82.22736671560027,22.271852734136328,7.698522143621597,0.005926724319583207,1.5932210101746023,38.81422737754947,1.1462744997717007,0.00013139452288268627,33.48832283411641,45.88901196588528,3,4,3,6
195,111,52,256,4,40,2539,649984,7149824,1017944,2680,7.710061502105614,1.5661062426152028,0.0026327577941419175,7.023789127889157,80,85.76267052167998,20.496625825925697,9.44427683217768,0.008919436488280807,1.5841149250045417,38.078987133880936,1.2475289807661574,0.00015563285578514474,33.35678985889225,46.27638243364987,3,5,3,6
196,111,39,256,4,40,2539,649984,7149824,757560,2680,7.650498379131699,1.1655056124458447,0.003537673583610539,9.437963989650985,85,89.4044944323105,17.31330875164456,13.624938869418857,0.01856389591954008,1.5815970259718592,38.55969083744452,1.1803626483244132,0.00013932559815594222,33.527545939447585,44.24557307599367,3,5,3,6
197,111,26,256,4,40,2539,649984,7149824,508088,2680,7.696670403247796,0.7816930878298542,0.005274676827636157,14.072019020327188,90,92.89369920154678,14.108027269066817,19.706007173428116,0.03883267187192004,1.5831768829375505,38.534165512774614,1.1838364955534604,0.00014014688482042983,33.773971254356475,44.16542196560759,4,6,3,6
198,112,244,256,4,40,2539,649984,7149824,4663576,2680,7.527773293990792,7.174908920834975,0.0005746663075717004,1.5331205066669868,5,34.773555265136594,40.35195442381284,0.9602897179827143,9.22156342463321e-05,1.5761049292050302,36.985992978709426,1.4148172656468105,0.00020017078951723176,33.90624120496139,44.99864303460134,3,3,3,6
199,112,231,256,4,40,2539,649984,7149824,4426264,2680,7.546796383346206,6.809804549035054,0.0006054767632477412,1.6153180198921708,10,38.09268591786315,40.29349209791841,0.966774963756086,9.346538305455814e-05,1.5912615852430458,38.698446877262704,1.1616563108765954,0.0001349445384599421,34.038059062386004,45.32561664342891,3,3,3,6
200,112,218,256,4,40,2539,649984,7149824,3931160,2680,7.102341093618452,6.048087337534462,0.0006817326183620102,1.8187568046072915,15,45.017387840595795,37.814254028911726,1.2861371961125871,0.00016541488872243477,1.5770083316601808,37.07603125466907,1.4002269663026286,0.00019606355571610623,33.17021032713066,42.725169537479495,3,4,3,6
201,112,205,256,4,40,2539,649984,7149824,3591000,2680,6.899201721438247,5.524751378495471,0.0007463102199944305,1.9910398217766638,20,49.774987468222996,37.33811506460853,1.3586082478136787,0.0001845816371027354,1.5752181229181583,37.107761044391886,1.3951212307041538,0.00019463632483614725,33.228373894307005,42.485188474419736,3,4,3,6
202,112,192,256,4,40,2539,649984,7149824,3249496,2680,6.665796901667323,4.999347676250492,0.0008247432832660819,2.2002870599009814,25,54.55138476135916,37.07943285062282,1.3996787122893768,0.00019591004976360482,1.745953186880797,37.64710596902849,1.3111268208337818,0.00017190535403097,33.50269134421555,40.93529566930206,3,4,3,6
203,112,180,256,4,40,2539,649984,7149824,3085112,2680,6.750496695987047,4.746442989365892,0.0008686880735610247,2.3175249391270074,30,56.85051827849189,36.43599650892869,1.5073016499843777,0.00022719582640456275,1.5872312309220433,38.34314261427676,1.2101602100927051,0.000146448773409162,33.472527280744764,41.4562787359246,4,4,3,5
204,112,167,256,4,40,2539,649984,7149824,2859640,2680,6.744227181713768,4.399554450571091,0.0009371809038900001,2.500253178721797,35,60.00405044935372,36.75371314771762,1.4531630373362607,0.00021116828130803464,1.5729163838550444,36.59173326864973,1.4805167887700954,0.00021919299618301154,33.47560894108966,40.96667764522541,4,4,3,6
205,112,154,256,4,40,2539,649984,7149824,2730744,2680,6.983892830289049,4.201248030720756,0.0009814175184491845,2.618269599786725,40,61.80683608435676,35.9693153685591,1.5905020440144773,0.00025296967520142306,1.5760954180732374,37.723310722846726,1.2996740984617003,0.0001689152762212234,34.27465908389655,41.72392036891781,4,4,3,6
206,112,141,256,4,40,2539,649984,7149824,2471768,2680,6.904399174299369,3.8028136077195747,0.001084244152363814,2.8925950979218116,45,65.42896720254932,35.9128996102853,1.6008661420345591,0.00025627724047126135,1.5836051777005196,38.07623363017886,1.2479245211589483,0.000155731561050979,33.88130465347206,41.667448612648556,4,4,3,5
207,112,128,256,4,40,2539,649984,7149824,2303480,2680,7.0878052382827885,3.5439026191413943,0.0011634570302325178,3.103922760345217,50,67.78270346235097,35.643720508625684,1.6512543494532324,0.00027266409265882174,1.5884325071237986,38.385525518397515,1.204269601965186,0.00014502652742173872,33.75571574678384,41.983705075995985,4,4,3,6
208,112,116,256,4,40,2539,649984,7149824,2059416,2680,6.992353764039603,3.168410299330445,0.0013013397973017594,3.4717725801877815,55,71.19627000608686,35.384918081308264,1.7011949934590498,0.0002894064405770136,1.59457343397662,36.590133245931945,1.4807895390341945,0.00021927376589131022,33.7415461206084,43.48589902269668,4,4,3,6
209,112,103,256,4,40,2539,649984,7149824,1828408,2680,6.991545482702845,2.813004627806223,0.0014657560019426736,3.9104094928484234,60,74.42723065630706,34.08520797566174,1.9757846234789829,0.00039037248783759865,1.5737591800279915,40.62202286145092,0.9308910545089502,8.665581553647851e-05,36.67989695091382,45.73306493510429,4,5,3,5
210,112,90,256,4,40,2539,649984,7149824,1472056,2680,6.4419762811255525,2.264757286333202,0.0018205829126065856,4.857032612889727,65,79.4112973969709,31.497582133076477,2.661465821525341,0.0007083400319147557,1.5848323651589458,38.5564745496648,1.180799804342514,0.00013942881779353193,33.48329322592644,41.141123528885586,4,5,2,5
211,112,77,256,4,40,2539,649984,7149824,1290808,2680,6.602497148381355,1.9859073454115794,0.0020762189264398735,5.539029816982851,70,81.94629685989473,29.657274023170086,3.289548537636603,0.0010821129581467112,1.5846741711720824,38.21429414424526,1.2282458142908426,0.0001508587780322975,33.62505284515301,41.51805705338984,5,5,3,5
212,112,64,256,4,40,2539,649984,7149824,1041592,2680,6.409954706577393,1.6024886766443482,0.0025729844315240517,6.864323074677993,75,85.43192112141502,29.44707449997699,3.370127060922979,0.0011357756406765356,1.5769821288995445,37.36281866414243,1.354749710231606,0.00018353467773726202,33.66556102832199,43.99694747600076,5,5,2,5
213,112,52,256,4,40,2539,649984,7149824,883544,2680,6.6920956160814375,1.3593319220165418,0.0030332388652970312,8.09221046150503,80,87.6424370725769,28.699143010893106,3.673185400166575,0.001349229098399688,1.5776135050691664,36.80516310006536,1.4445808221698695,0.00020868137517809763,33.724916770321016,45.881649485195226,5,5,2,4
214,112,39,256,4,40,2539,649984,7149824,603544,2680,6.095111138041426,0.9285520874359984,0.004440438476730777,11.846400593825802,85,91.55861738694547,25.709830576247548,5.182131999837615,0.0026854492063740996,1.5973963160067794,38.70245770853022,1.16112002362379,0.00013481997092601106,33.17767659121972,42.18202401232682,6,6,2,4
215,112,26,256,4,40,2539,649984,7149824,414168,2680,6.273941891114006,0.6371972233162663,0.006470804118135636,17.263100963860076,90,94.20729796985212,22.009890477873956,7.934242611598311,0.0062952205819702374,1.613967509008944,36.885317668049744,1.4313113547483136,0.00020486521942314527,33.938098867894105,45.56757725799514,6,6,2,4
216,113,244,256,4,40,2539,649984,7149824,4832888,2680,7.8010705131102345,7.435395332808192,0.000554533852222522,1.4794102408332244,5,32.40549697447098,30.465526332940094,2.9972549309604477,0.000898353712116672,1.5786453867331143,36.69397343003722,1.463192035469115,0.00021409309326602516,33.748452002116025,41.41995411474616,2,2,4,6
217,113,231,256,4,40,2539,649984,7149824,4602200,2680,7.8467679097848455,7.080481981094919,0.0005823301899091738,1.5535665551258093,10,35.631981990046185,30.21082944015691,3.086444898262106,0.0009526142110008183,1.5908792652189734,37.21597637988416,1.3778475902187046,0.00018984639818714913,33.59758823266615,43.5338872461614,2,2,4,6
218,113,218,256,4,40,2539,649984,7149824,4383096,2680,7.918844015017109,6.743390606538007,0.000611439950208711,1.6312268770750173,15,38.69644903147266,29.970086342521853,3.173187120453543,0.001006911650141225,1.582191640976816,36.3058410964545,1.5300581804553373,0.00023410780355782973,33.51809718557925,41.15561538968212,2,2,4,6
219,113,205,256,4,40,2539,649984,7149824,4140504,2680,7.954935205909759,6.370162957857424,0.0006472641977884818,1.7268004088391171,20,42.0894276558416,29.644401751733703,3.29442718050422,0.0010853250447644984,1.5815127398818731,36.62561799510977,1.4747523614089488,0.00021748945274812707,33.30653846054072,43.98004468801741,2,2,4,6
220,113,192,256,4,40,2539,649984,7149824,3872888,2680,7.944581199947486,5.958435899960614,0.0006919900601308378,1.846122067046607,25,45.83240090944896,29.617038590494833,3.3048219804054133,0.0010921848322170758,1.5922945332713423,36.05646689662866,1.5746232335665706,0.0002479438327687643,33.435004700574744,42.54125344500237,2,3,4,7
221,113,180,256,4,40,2539,649984,7149824,3649720,2680,7.9859087129666095,5.6150920638046475,0.0007343029054283617,1.9590061703363546,30,48.95370851086684,29.060718272836716,3.5234173321423152,0.0012414469696440868,1.6028923536650836,37.66918854572806,1.3077977104552168,0.0001710334851471907,33.83945507922901,46.40277458708676,2,3,4,5
222,113,167,256,4,40,2539,649984,7149824,3411640,2680,8.046074059050076,5.248806124458448,0.0007855459544383347,2.095714670950042,35,52.28358068674138,28.977259599946002,3.5574353802838967,0.0012655346484895633,1.6034846431575718,36.74108171866252,1.4552778326863602,0.00021178335703083098,33.609607685168456,46.021457895839205,2,3,4,8
223,113,154,256,4,40,2539,649984,7149824,3126488,2680,7.996010291402178,4.8100999409216225,0.0008571918395336877,2.28685477123213,40,56.27181871889434,27.6358203847375,4.1515376490459275,0.0017235264851445788,1.596579615958035,37.20739900371337,1.3792088962951463,0.00019022171796196754,33.957958066763645,43.16727396167058,2,3,4,6
224,113,141,256,4,40,2539,649984,7149824,2868184,2680,8.011709529914889,4.412699389523435,0.0009343891465819487,2.492805203571319,45,59.884551004332415,27.236866448929828,4.346670078361973,0.0018893540770127286,1.5888799712993205,36.72809461040996,1.4574553859451556,0.00021241762020205422,33.01013388827179,41.619474053519546,2,3,4,6
225,113,128,256,4,40,2539,649984,7149824,2593304,2680,7.979593343836156,3.989796671918078,0.0010334307123268233,2.757032727362469,50,63.72912116438111,26.617656446746498,4.66785307387548,0.0021788852319288773,1.592855281196535,37.767689200499575,1.2930506590556667,0.0001671980006884294,34.56037664013032,44.63153223239567,2,3,4,6
226,113,116,256,4,40,2539,649984,7149824,2352312,2680,7.986826200920808,3.6190306222922413,0.001139304650063427,3.039487959080258,55,67.09972161552508,26.41066976173555,4.780425032675353,0.002285246349302915,1.5805537048727274,37.78842695823892,1.2899671538289665,0.00016640152579576047,33.493699797254074,45.330270874364196,2,3,4,5
227,113,103,256,4,40,2539,649984,7149824,2036888,2680,7.788740311337313,3.133750984639622,0.001315732627419868,3.5101704168319516,60,71.51135468509435,25.411855473647176,5.362992953239006,0.0028761693416491235,1.7591006630100314,38.14864250458974,1.2375645906171444,0.00015315661159493805,33.55471604305359,43.90397209293673,2,3,3,5
228,113,90,256,4,40,2539,649984,7149824,1791768,2680,7.841092293553893,2.7566340094525406,0.0014957293578186461,3.9903737537449047,65,74.93969082315873,25.672481468656823,5.204463014456002,0.0027086435268840452,1.5886391908861697,39.97785408872414,1.0025528953607115,0.00010051123079961458,33.45873146778204,46.08666778042259,2,3,3,5
229,113,77,256,4,40,2539,649984,7149824,1547256,2680,7.914231495168872,2.3804524419062623,0.001732098631383559,4.620970285460196,70,78.35952325539762,20.87220377962112,9.04460929244526,0.008180495725298715,1.5773666547611356,39.35397445032777,1.077212234975076,0.00011603861991799984,33.96560266174431,45.75582181454532,3,4,3,6
230,113,64,256,4,40,2539,649984,7149824,1288568,2680,7.92984442693974,1.982461106734935,0.0020798281503188036,5.5486586660541,75,81.97762630240967,22.499811922773265,7.49910447110747,0.005623656786858406,1.5788226537406445,37.27398723809759,1.3686759565434063,0.00018732738740200085,33.55222040486766,44.803898010789396,3,4,3,5
231,113,52,256,4,40,2539,649984,7149824,1051096,2680,7.961159753991578,1.6171105750295391,0.0025497195308516064,6.8022559309520725,80,85.29899477245874,20.546630471686214,9.39006235919542,0.008817327110957866,1.6113864458166063,37.72802914473732,1.2989682703169698,0.00016873185672902603,33.32791600294683,44.974159449723494,3,4,3,5
232,113,39,256,4,40,2539,649984,7149824,773752,2680,7.81401924844225,1.190416994879874,0.0034636420972094417,9.240459475387462,85,89.17802731927387,18.527769093602714,11.847086115530443,0.014035344942879422,1.605649684555829,37.5509546955318,1.3257213952261693,0.00017575372177604213,33.48422385364631,45.568972496727795,3,5,3,6
233,113,26,256,4,40,2539,649984,7149824,518808,2680,7.859060199351653,0.7981858014966522,0.005165687499036252,13.78125240936917,90,92.74376544093953,14.608158814427247,18.603388655010576,0.03460860694493762,1.5821529203094542,38.29423172860085,1.2169939341048626,0.00014810742356480307,34.2967132605143,44.808357034563,4,5,3,5
234,114,244,256,4,40,2539,649984,7149824,4648184,2680,7.502928092252661,7.151228337928318,0.0005765692580156035,1.538197283067968,5,34.988833291560745,28.957729803274177,3.5654430982952796,0.0012712384487181445,1.5770878917537627,36.2618343380772,1.537829837912753,0.0002364920610374765,33.24414472607294,44.684939771390546,1,3,4,8
235,114,231,256,4,40,2539,649984,7149824,4350360,2680,7.417379784453436,6.6930262898779045,0.0006160409713219136,1.64350168721669,10,39.15430645565541,28.642304222376136,3.697300835138066,0.0013670033465512641,1.5890324241481721,35.75681421891001,1.6298937299068093,0.0002656553570789531,33.21275767456892,41.00010046944201,1,3,4,8
236,114,218,256,4,40,2539,649984,7149824,4125880,2680,7.454137473757999,6.3476639424970465,0.0006495583972388921,1.7329209768582703,15,42.29396415911776,28.325461867107315,3.834660382837601,0.0014704620251704218,1.587478717323393,35.99001405492829,1.5867163514307443,0.0002517668779897694,31.58589596326959,41.7824048256417,1,3,4,8
237,114,205,256,4,40,2539,649984,7149824,3808472,2680,7.3170193757865105,5.859331922016542,0.0007036942899934672,1.8773471355441238,20,46.73334616348598,28.018943748729363,3.972398530521633,0.0015779950085290425,1.573753678239882,36.84025778709608,1.4387558770221383,0.00020700184736657424,33.53861046178997,41.395756194893174,1,3,4,8
238,114,192,256,4,40,2539,649984,7149824,3541400,2680,7.264589077064461,5.448441807798345,0.0007567628621449144,2.018925848534478,25,50.468710838196856,28.13600836097431,3.9192194519357564,0.0015360281112431612,1.5876043187454338,36.056431273277155,1.57462969156619,0.00024794586655618343,33.49093365701814,42.59411943589296,1,3,4,7
239,114,180,256,4,40,2539,649984,7149824,3348184,2680,7.3261213951249395,5.151179105947223,0.0008004339068581655,2.1354334170404017,30,53.17109903684342,27.4983544065252,4.217764039089111,0.0017789533489433297,1.746724316850305,38.4560718152669,1.1945282064882723,0.00014268976360960886,34.618247324240336,44.42479362718706,1,3,4,7
240,114,167,256,4,40,2539,649984,7149824,3123416,2680,7.36632131562004,4.80537367073651,0.000858034920740625,2.2891039810259026,35,56.31478481148627,27.426397206580017,4.252850729108921,0.001808673932408228,1.5810938579961662,36.26901940348083,1.5365582538162443,0.00023610112673708256,33.51336238615679,41.57277376941604,1,3,4,6
241,114,154,256,4,40,2539,649984,7149824,2938424,2680,7.515035574901664,4.5207635880267825,0.0009120535361812999,2.43321726204251,40,58.90214919975652,26.111753378078,4.947802219740305,0.0024480746805667095,1.6088880589231849,37.691497731518126,1.304443020596802,0.00017015715939837088,33.52241820444138,43.49529363565124,1,3,4,6
242,114,141,256,4,40,2539,649984,7149824,2706648,2680,7.560490392431264,4.164176348956282,0.0009901546119037274,2.641578808917894,45,62.14385137312471,25.970507214430487,5.028918985102849,0.002529002615872787,1.5881051621399822,38.14803204001437,1.2376515725986315,0.00015317814151558656,33.645466048984034,44.81054884898276,1,3,4,7
243,114,128,256,4,40,2539,649984,7149824,2478232,2680,7.625516935801497,3.8127584679007485,0.0010814161063209579,2.885050310059752,50,65.33855938272048,25.22692444448011,5.4784004934149095,0.0030012871966248727,1.6080962722189729,38.133313990442225,1.2397505238667712,0.00015369813614279335,34.07479120228194,45.66400855367228,1,3,4,8
244,114,116,256,4,40,2539,649984,7149824,2220344,2680,7.538754057394304,3.415997932256794,0.0012070201734506005,3.22014246441092,55,68.94547334312006,24.543833318303015,5.926637083118192,0.003512502711499171,1.5869414769113064,37.24577446958015,1.3731288012240133,0.00018854827047508956,33.77845874745607,43.16220317652385,2,4,4,6
245,114,103,256,4,40,2539,649984,7149824,1974360,2680,7.549643044238042,3.03755169358015,0.0013574018922587572,3.6213375473571183,60,72.38589369472591,23.249202603831318,6.879230632420209,0.004732381409402854,1.5806919140741233,37.03970839459989,1.406094729188982,0.00019771023874530367,33.301004980988694,45.97278338102494,2,4,3,6
246,114,90,256,4,40,2539,649984,7149824,1694584,2680,7.415797995711348,2.6071164828672706,0.0015815090901365762,4.219220764506215,65,76.29894106484299,21.341376182807274,8.569020678526659,0.00734281153890175,1.575419757049531,37.21066888054516,1.3786897791262398,0.00019007855070671598,33.00307206272996,43.82300915266491,2,4,3,5
247,114,77,256,4,40,2539,649984,7149824,1437336,2680,7.351989483537337,2.2113405868452145,0.0018645605481251426,4.974358118073993,70,79.8969037559526,18.772925942041653,11.517380182444935,0.013265004626697531,1.5767786158248787,36.65872909364252,1.4691412244608333,0.00021583759374102764,33.227607930056884,41.582721471107305,2,4,3,5
248,114,64,256,4,40,2539,649984,7149824,1213496,2680,7.467851516345018,1.8669628790862545,0.0022084951248294185,5.891922181861333,75,83.02761019012496,17.567923330544524,13.231340122298175,0.017506836143193746,1.5880310577340426,38.75993094496848,1.1534624281042765,0.0001330475573048213,33.85657083796255,46.36634225235326,2,4,3,5
249,114,52,256,4,40,2539,649984,7149824,996472,2680,7.547429333171752,1.533071583300512,0.0026894885154826226,7.175137886463443,80,86.06298560635898,15.632428553335963,16.53402432892779,0.027337396050957596,1.60726765403524,37.998163731058014,1.259191587178206,0.00015855634532203696,33.28865504408995,45.25856582659434,2,5,3,5
250,114,39,256,4,40,2539,649984,7149824,723096,2680,7.302450995243433,1.1124827688066168,0.0037062851958799383,9.887793598636971,85,89.88652028357622,13.531206562206886,21.05909345525656,0.04434854171572296,1.575826923828572,38.08157005550618,1.247158058424132,0.00015554032226922508,34.224321470873555,44.09278142903594,3,5,3,5
251,114,26,256,4,40,2539,649984,7149824,495736,2680,7.509558578483352,0.7626895431272155,0.005406103248503236,14.422644310681491,90,93.06645869884349,11.099039850397498,27.864291671312074,0.07764187503439515,1.5789242140017454,37.9199169075903,1.2705862600451192,0.00016143894442154435,33.71515817360309,45.6177023836095,3,6,3,5
252,115,244,256,4,40,2539,649984,7149824,4482744,2680,7.235880913487303,6.8966989956675855,0.0005978481037507384,1.5949659405042982,5,37.302736403021946,35.21571702889529,1.7346591391219752,0.00030090423289393927,1.7489393358118837,37.16003871600264,1.3867496476371592,0.00019230745852217855,33.195174145521655,41.81181346813337,2,3,3,6
253,115,231,256,4,40,2539,649984,7149824,4261912,2680,7.26657561947046,6.556949094131548,0.0006288257476925849,1.6776094860710404,10,40.39137187153138,35.3210623807356,1.7137476843208266,0.00029369311255149957,1.619617206975818,37.19700293484081,1.3808606482081862,0.00019067761297699318,33.637691348903545,41.521014344847444,2,3,3,6
254,115,218,256,4,40,2539,649984,7149824,4078456,2680,7.368457566548992,6.274702146514375,0.0006571114166733686,1.7530712603004666,15,42.95725321350567,34.65790482512659,1.8497147458164567,0.0003421444640890839,1.5812657750211656,37.39844262036651,1.3492047732625456,0.0001820353520194437,33.60364353129165,42.52845302051013,2,3,3,6
255,115,205,256,4,40,2539,649984,7149824,3826456,2680,7.351571100586941,5.8870002953918865,0.000700386989945788,1.8685237723888632,20,46.48181549643739,34.57875506146171,1.8666472160535321,0.0003484371829200401,1.5970781571231782,37.64726016339238,1.311103545547071,0.00017189925071461006,33.53782952320914,43.6358446824527,2,3,3,6
256,115,192,256,4,40,2539,649984,7149824,3590104,2680,7.364497177366418,5.5233728830248126,0.0007464964803248039,1.991536735426049,25,49.78751924522897,34.98838051300452,1.7806598825284348,0.0003170749617246179,1.5831602141261099,37.85629364862382,1.2799273447696176,0.00016382140078890033,33.810213092706945,42.83091267468305,2,4,4,6
257,115,180,256,4,40,2539,649984,7149824,3395896,2680,7.430519452102753,5.224583989759748,0.0007891878903240853,2.1054307905778034,30,52.50378191127502,33.46417797907307,2.122223410828422,0.000450383220546822,1.5770172448828816,37.90988594380109,1.272054453584036,0.000161812253288298,33.734472027063646,44.016379514859885,3,4,3,6
258,115,167,256,4,40,2539,649984,7149824,3157944,2680,7.447752781164729,4.858494978337928,0.0008486534276731949,2.264075613753759,35,55.831863833291564,34.43815549163828,1.8971087425187705,0.00035990215809411505,1.6077451389282942,38.31141995393848,1.214588045526047,0.00014752241203347827,33.775207193160895,44.22341954402355,3,4,3,6
259,115,154,256,4,40,2539,649984,7149824,2978136,2680,7.616599233771349,4.581860476565577,0.0008998917443662748,2.4007714892805434,40,58.34672294031294,32.821349236732,2.2852437937579437,0.00052223391969092,1.569259159266949,38.15172938171983,1.2371248508507606,0.00015304778965925168,33.61518517366764,44.16126982362986,3,4,3,6
260,115,141,256,4,40,2539,649984,7149824,2689848,2680,7.51356288704717,4.138329558881449,0.0009963388265805354,2.658077333737817,45,62.37882219198682,32.137470923066246,2.4724439435573333,0.0006112979054033337,1.5848726541735236,37.24622535290782,1.373057524148197,0.00018852869646199765,33.856253092091166,44.67041320240057,3,4,3,6
261,115,128,256,4,40,2539,649984,7149824,2344824,2680,7.21502067743206,3.60751033871603,0.0011429429245009433,3.049194310532475,50,67.2044514662179,31.433381276222775,2.6812106525225756,0.0007188890563200536,1.5762568963691592,37.00577406932807,1.4115988521326477,0.00019926113193422087,33.82530865504288,43.88485071372046,3,4,3,6
262,115,116,256,4,40,2539,649984,7149824,2053368,2680,6.97181893495946,3.1591054549035054,0.0013051727698103798,3.4819983558719136,55,71.28085950087723,30.941820898475527,2.8373241531869495,0.0008050408350258042,1.5908781220205128,36.81507363864558,1.4429335056464843,0.0002082057101717253,33.47256452047616,42.828856601214305,3,4,3,6
263,115,103,256,4,40,2539,649984,7149824,1835320,2680,7.017975886844832,2.8236387357227253,0.0014602358171871936,3.8956824967853017,60,74.33055694797523,29.977253001286343,3.1705700287054315,0.001005251430692516,1.5879549239762125,37.150698215692316,1.3882417115611767,0.0001927215049718305,33.87118693212357,43.52123429440631,3,4,3,5
264,115,90,256,4,40,2539,649984,7149824,1643032,2680,7.190197365541989,2.5278037613233555,0.0016311307387804985,4.351603620623336,65,77.01996580615132,29.293223265131854,3.430353184730792,0.001176732297199269,1.7480546040460463,38.11404445858468,1.2425039471765102,0.00015438160587492083,33.74353971851148,45.57408835935016,3,5,3,5
265,115,77,256,4,40,2539,649984,7149824,1432664,2680,7.328092152038588,2.2041527176053566,0.0018706409876984415,4.990579787026127,70,79.96224802176948,25.201573198573552,5.494413493798059,0.0030188579640830194,1.5625096387229864,37.106209721388225,1.3953704253213084,0.00019470586238613693,33.84263058372666,44.74154531716049,4,5,3,5
266,115,64,256,4,40,2539,649984,7149824,1167960,2680,7.187623079952737,1.7969057699881843,0.0022945991301071954,6.121634302544607,75,83.66449300010741,26.93293997716051,4.501455913992539,0.002026310534561841,1.5841360050253568,39.382122684858636,1.0737269795201436,0.0001152889626549451,33.94570277356657,44.67429462942381,4,5,3,5
267,115,52,256,4,40,2539,649984,7149824,896696,2680,6.791710849213803,1.3795662662465538,0.002988749810415124,7.973520568843845,80,87.4584884886677,24.540884047024292,5.928649799041579,0.0035148888439675745,1.5739604919217527,38.74178279352156,1.1558749725521613,0.00013360469521724597,34.25200293532739,42.25247113532135,4,5,2,4
268,115,39,256,4,40,2539,649984,7149824,696760,2680,7.036487209783783,1.0719648483654982,0.003846374648372467,10.261530512658592,85,90.2548650148591,22.483647073022905,7.513073652380968,0.00564462757061011,1.5844391267746687,39.27269863141082,1.0873392581642944,0.00011823066623452782,33.927958096610475,44.92409540512221,5,6,3,4
269,115,26,256,4,40,2539,649984,7149824,439480,2680,6.657375708183113,0.6761397203623474,0.0060981159552198055,16.26882679530354,90,93.85327526943321,17.341828223885827,13.580275760702424,0.01844238897367218,1.5809543388895693,38.78587338401563,1.1500224826892766,0.00013225517106908074,34.644864252374205,45.50507101122913,5,6,2,4
270,116,244,256,4,40,2539,649984,7149824,4399384,2680,7.101324259583287,6.768449684915321,0.0006091761937580352,1.6251875262536755,5,38.468639228042534,30.978713030621652,2.825298562248105,0.0007982311965841209,1.5972778080031276,34.883986409460555,1.8021904314927604,0.0003247890351364061,31.06811817539476,41.96258139141002,3,5,3,8
271,116,231,256,4,40,2539,649984,7149824,4112920,2680,7.012543712031699,6.3277249901536035,0.0006516051856102234,1.7383814905225485,10,42.47522736223996,29.855240379912036,3.2154220156439353,0.0010338938738687707,1.59248063294217,36.2476094022344,1.5403504148856682,0.00023726794006384504,30.15042588732843,40.285147745609734,4,5,3,8
272,116,218,256,4,40,2539,649984,7149824,3952984,2680,7.141770038771314,6.081663548641197,0.0006779688458136942,1.808715643675765,15,44.712149557807294,29.487444335070485,3.354499899854873,0.0011252669578126354,1.587819346226752,35.560994722375334,1.6670562875892934,0.0002779076665990997,33.37180566358361,40.2582407877611,4,5,3,8
273,116,205,256,4,40,2539,649984,7149824,3698744,2680,7.106204670553992,5.6905154588420634,0.0007245702865621411,1.933041053936147,20,48.268041283253964,29.906173506292664,3.196622299020836,0.0010218394122597256,1.6073347013443706,35.51269718214033,1.6763517065267413,0.0002810155043975118,31.422293203998706,41.04205686938267,4,5,3,8
274,116,192,256,4,40,2539,649984,7149824,3475928,2680,7.130284232637521,5.347713174478141,0.0007710171211831776,2.056953999047161,25,51.38442568656235,29.81065495877668,3.2319694878204754,0.0010445626770202547,1.5773082859814163,36.28976200723211,1.5328932069540608,0.00023497615839259054,30.06270062889235,41.59953895138341,4,5,4,8
275,116,180,256,4,40,2539,649984,7149824,3299512,2680,7.219622773620411,5.076297262701851,0.0008122413253838749,2.166933776873671,30,53.85184306634681,30.96341713840648,2.83027830960245,0.0008010475309806102,1.5710016321390863,36.80809127972412,1.4440939084017246,0.00020854072162829686,32.32737703769416,42.1463402862066,4,5,3,8
276,116,167,256,4,40,2539,649984,7149824,3063096,2680,7.224061526415464,4.712571386372588,0.0008749317683807495,2.334182147735494,35,57.158441942067384,29.87198996373441,3.209227476205227,0.0010299140994030572,1.754561370704323,36.07146745955295,1.5719062003666147,0.0002470889102751008,32.09550589363319,41.22936696478476,4,5,3,8
277,116,154,256,4,40,2539,649984,7149824,2895832,2680,7.406106300159077,4.4552358211894445,0.0009254680520140671,2.469005108031129,40,59.49785617100505,29.63066967644507,3.2996396692273966,0.0010887621946739084,1.5958591010421515,36.33106440557327,1.525621427263556,0.00023275207393256897,30.582693530509836,42.90216494156187,4,5,3,8
278,116,141,256,4,40,2539,649984,7149824,2642360,2680,7.380914471828134,4.065269298936589,0.0010142448417323907,2.7058478027218094,45,63.04300637330373,28.620693326210827,3.706511344387351,0.001373822634607213,1.6101397941820328,36.65694237005631,1.4694434639995104,0.00021592640938908808,32.188252168501045,42.835765564034354,4,5,3,8
279,116,128,256,4,40,2539,649984,7149824,2424632,2680,7.460589799133517,3.7302948995667586,0.0011053223746943866,2.9488285232563127,50,66.08822818575673,29.148774620638967,3.48787786603398,0.0012165292008369754,1.5897656492888927,36.95614586021319,1.4196873316314327,0.0002015512119594777,33.16121813943962,41.11813786560949,4,5,3,8
280,116,116,256,4,40,2539,649984,7149824,2105784,2680,7.149787453654032,3.239747439936983,0.0012726851376969337,3.3953263962495677,55,70.54775054602743,28.435306148518787,3.786471502155809,0.0014337366436638066,1.5775421750731766,35.81165346980067,1.619635646266892,0.0002623219626658373,30.700666886923866,43.58599906211411,4,6,3,8
281,116,103,256,4,40,2539,649984,7149824,1748184,2680,6.684781486480802,2.6895800512012604,0.001533019407568082,4.08985781817017,60,75.54927226180672,28.13955772873445,3.9176182447000065,0.0015347732711206358,1.573467946145683,36.76963323189067,1.4505020215317421,0.00021039561144676705,33.04001690439112,40.13738352667519,5,6,3,8
282,116,90,256,4,40,2539,649984,7149824,1577464,2680,6.903260251192508,2.426927432059866,0.0016989294208932819,4.5324799805257046,65,77.93702334491032,27.745734253111436,4.099333836958964,0.0016804537906836704,1.5901784766465425,37.97520492372981,1.2625243232840717,0.0001593967666883903,32.44725155279339,42.39363593656131,5,6,3,8
283,116,77,256,4,40,2539,649984,7149824,1378904,2680,7.053109159450239,2.121442989365892,0.0019435725764810313,5.1851499451738485,70,80.71415464212825,23.56793366502844,6.63137086305692,0.004397507952340027,1.6092455401085317,36.87516230191105,1.4329857936469468,0.000205344828479397,32.12310789258817,41.88944166595081,5,6,3,8
284,116,64,256,4,40,2539,649984,7149824,1142552,2680,7.031262307995274,1.7578155769988184,0.002345626282217352,6.257766823741939,75,84.01985839091984,26.374460989156344,4.800394732733854,0.0023043789590058926,1.606867077760398,39.503524043312325,1.0588240514171878,0.00011211083718595077,34.90021727552018,44.84765680051087,5,6,3,8
285,116,52,256,4,40,2539,649984,7149824,856824,2680,6.489714303026631,1.3182232178022844,0.0031278302195083237,8.344565511703687,80,88.01615256543379,23.8168324509822,6.444042224286852,0.004152568018839183,1.5918024033308027,38.77305167516587,1.1517213463113658,0.0001326462059549265,33.760079967845556,44.09818009891047,5,6,2,8
286,116,39,256,4,40,2539,649984,7149824,661976,2680,6.685208188162107,1.018449684915321,0.004048485141455279,10.800729935828489,85,90.74136650076981,23.267954245021592,6.864395339000999,0.004711992337009864,1.6008309796452522,38.81353730235119,1.1463655724261723,0.00013141540256439858,34.17458211829851,43.66012165508651,6,6,3,8
287,116,26,256,4,40,2539,649984,7149824,463960,2680,7.02820613809192,0.7138021858999606,0.0057763600310371584,15.410431933787395,90,93.51088921909127,19.64335618944293,10.419147603360033,0.010855863678060313,1.582901651971042,39.704632545589334,1.0345902295804597,0.00010703769431433481,34.4219288078239,49.4656239274614,6,6,3,8
288,117,244,256,4,40,2539,649984,7149824,4548312,2680,7.3417183736981775,6.997575324931075,0.000589229586712609,1.5719730748462286,5,36.38567886426295,38.6510443485254,1.1680132852623208,0.000136425503454928,1.5820860872045157,35.72662075632435,1.635569345302123,0.0002675087083292015,33.95920230031587,43.49071942525605,3,4,3,6
289,117,231,256,4,40,2539,649984,7149824,4231096,2680,7.214034226243758,6.509538696337141,0.0006334056235074789,1.689827883839081,10,40.82237548784418,38.151859123989745,1.2371063718930206,0.0001530432175378313,1.744400430005044,39.19854072894831,1.096662425205885,0.00012026684748584533,33.50823138817049,43.4115064133071,3,4,3,6
290,117,218,256,4,40,2539,649984,7149824,3925528,2680,7.0921658819661,6.039422508861756,0.0006827107079608144,1.8213661958340381,15,45.09615901034767,37.385184097516074,1.351265831240288,0.0001825919346677507,1.5836165389046073,36.374235069844765,1.5180575863772736,0.00023044988355575932,33.86651261187033,38.55118036346272,3,4,3,6
291,117,205,256,4,40,2539,649984,7149824,3583992,2680,6.885737615154804,5.513969574635683,0.000747769526271264,1.9949330244040724,20,49.87300386694833,36.96700327785258,1.4179138220606355,0.00020104796067905997,1.5781302177347243,36.46708883291652,1.5019157042196445,0.00022557507825815903,34.392715712047355,43.912114635068036,3,4,3,6
292,117,192,256,4,40,2539,649984,7149824,3319800,2680,6.810013784954706,5.10751033871603,0.0008072775468401711,2.153691186216037,25,53.56808782985427,37.02225882837984,1.408922350334656,0.0001985062189272531,1.5860502468422055,39.25473840110229,1.0895899277700192,0.00011872062106978757,35.52005519584941,42.89521003915258,3,4,4,7
293,117,180,256,4,40,2539,649984,7149824,3102264,2680,6.788026782197716,4.772831331232768,0.0008638852141532765,2.3047116557456104,30,56.610624261520286,36.26208393680699,1.5377856472915077,0.00023647846970157614,1.5782906869426365,38.611447550360246,1.1733501210692816,0.00013767505066132979,34.69309247612385,41.599435737329294,4,4,3,6
294,117,167,256,4,40,2539,649984,7149824,2875448,2680,6.781509057505312,4.423875049231981,0.0009320286786615512,2.486507841560689,35,59.78295409789108,36.52728967498939,1.4915421002102995,0.00022246978366997512,1.5851364531554286,35.16572359899875,1.744672115928789,0.00030438807920994383,33.383332983110684,41.33456091294787,4,4,3,6
295,117,154,256,4,40,2539,649984,7149824,2745048,2680,7.020475389124464,4.223254726270185,0.0009763035109039988,2.6046262214722655,40,61.60677521572559,35.755635737207484,1.6301148851745575,0.00026572745388676606,1.5797288781031966,37.21355225646448,1.3782321839541816,0.00018995239528871128,34.48932790891835,41.024045717889365,4,4,3,6
296,117,141,256,4,40,2539,649984,7149824,2484664,2680,6.9404216212894445,3.8226540961008273,0.0010786166660763789,2.877581838027194,45,65.24859912635611,35.75719623640492,1.6298220464922895,0.0002656319903232314,1.6075598499737682,37.86582400664318,1.2785237491985044,0.00016346229772646004,35.024313786838604,41.52842687522241,4,4,3,6
297,117,128,256,4,40,2539,649984,7149824,2315096,2680,7.1235476565577,3.56177382827885,0.0011576193816584712,3.0883488200921256,50,67.62023792473772,35.46908205449998,1.684790470034607,0.00028385189279194324,1.5897770281881094,37.5001699965014,1.33349533331,0.00017782098039595477,34.426609248384835,41.46357231624396,4,4,3,6
298,117,116,256,4,40,2539,649984,7149824,2048888,2680,6.95660795045565,3.152212977550217,0.0013080265978423417,3.489611926078927,55,71.34351838590712,34.788530170190974,1.822105384425746,0.0003320068031953296,1.5864005340263252,35.61188949264324,1.6573167717705208,0.0002746698881991861,33.72802223036894,44.1437452222706,4,5,3,6
299,117,103,256,4,40,2539,649984,7149824,1773368,2680,6.7810811534240605,2.7283256203229618,0.0015112486522819856,4.031776822407983,60,75.1970398152458,33.077906921457156,2.2187310131434486,0.0004922767308684554,1.5827101953327651,39.60696898579905,1.0462887380162695,0.00010947201232996777,33.823829762916255,43.017114509474375,4,5,3,5
300,117,90,256,4,40,2539,649984,7149824,1501016,2680,6.568710340904118,2.309312229224104,0.0017854573169106792,4.7633229759043205,65,79.00625246159906,32.114838697002796,2.4788946213224063,0.0006144918543621157,1.5861776480451222,40.55286171523746,0.9383328359012051,8.804685109303978e-05,36.24724645875802,45.6695645519456,4,5,3,6
301,117,77,256,4,40,2539,649984,7149824,1298104,2680,6.63981626880406,1.997132237101221,0.0020645495276187423,5.507897672297443,70,81.8442523899889,30.028977863143563,3.151745249001172,0.0009933498114601462,1.7755471789278092,38.319804854655374,1.2134161119033804,0.0001472378660626717,34.6962573347279,41.73889897770052,5,5,3,6
302,117,64,256,4,40,2539,649984,7149824,1058840,2680,6.516098857818038,1.6290247144545096,0.0025310717388840618,6.7525065165652975,75,85.19068441404991,30.682132182841535,2.923434654893094,0.0008546470181429901,1.5678077139891686,40.417109097172556,0.9531133335557391,9.084250266017335e-05,33.80924296669095,44.64631045896091,5,5,2,5
303,117,52,256,4,40,2539,649984,7149824,846008,2680,6.4077922864846855,1.3015828081922016,0.0031678187440307894,8.451248687955669,80,88.16742901643453,27.7663648685026,4.089608705069189,0.0016724899360577685,1.5696054501459002,35.42391321968906,1.693574629030695,0.0002868195024096456,33.23572036941327,45.342280811299226,5,6,2,5
304,117,39,256,4,40,2539,649984,7149824,610232,2680,6.162652366669696,0.9388415714848366,0.004391772309547844,11.716566813933062,85,91.46507662286513,26.284694736557764,4.850262718635996,0.002352504843979024,1.6026985617354512,41.23668139362128,0.8672931780227864,7.521974566448645e-05,37.217821655982014,43.295858021204225,6,6,3,5
305,117,26,256,4,40,2539,649984,7149824,420888,2680,6.375738479716424,0.6475359393461992,0.006367489688468191,16.98747410237403,90,94.11330964230729,21.521670924403512,8.392985132188457,0.007044219942913649,1.5858416981063788,37.67729534879695,1.3065776728007659,0.00017071452150614654,34.133159978655165,45.58401804630474,6,6,2,5
306,118,244,256,4,40,2539,649984,7149824,4654680,2680,7.513413697144222,7.161222430090587,0.0005757646068043345,1.536050598537386,5,34.89797790826739,37.23876853396216,1.3742367974259988,0.0001888526775399666,1.5868508070707321,37.25480592077029,1.3717017855543916,0.00018815657884931064,33.83938527594133,44.565631473926835,3,4,3,6
307,118,231,256,4,40,2539,649984,7149824,4303960,2680,7.338267613966708,6.621639917290271,0.0006226823669364957,1.6612198998131953,10,39.803273479179346,37.00960544665546,1.4109763280835508,0.00019908541984121395,1.6008881661109626,38.72423576732559,1.1582124037016073,0.00013414559720882548,33.31439050820333,44.47246168176163,3,4,3,6
308,118,218,256,4,40,2539,649984,7149824,3915672,2680,7.074359261574484,6.024259058684521,0.0006844291350245884,1.8259506924992697,15,45.23400855741344,35.55892501630206,1.6674535672896447,0.0002780401399066962,1.5958350757136945,34.9384012595768,1.7909354664934825,0.00032074498451442276,33.479038167230634,41.76128270360121,3,4,3,5
309,118,205,256,4,40,2539,649984,7149824,3589816,2680,6.896926963755655,5.522929795194958,0.0007465563694629474,1.9916965103503912,20,49.79154731640946,35.14618346239236,1.7486014205920912,0.000305760692809668,1.602484316099435,35.23959313974657,1.7298973883364994,0.0002992544974173442,33.230311283995256,43.865049011298126,3,4,3,6
310,118,192,256,4,40,2539,649984,7149824,3344856,2680,6.861411973217803,5.146058979913351,0.0008012303070745048,2.1375580891972628,25,53.21764563715135,35.91474221587581,1.6005265738187902,0.0002561685313500115,1.58043915592134,37.041051036413215,1.405877395588025,0.0001976491251425368,33.29704804748567,40.10710979823208,3,4,4,6
311,118,180,256,4,40,2539,649984,7149824,3167320,2680,6.930375038291541,4.87291994879874,0.0008461412171804554,2.2573734261141913,30,55.70072773819327,34.96466555663117,1.7855282349144235,0.00031881110776766166,1.582417849916965,36.523531579600345,1.4921875804689384,0.00022266237753057445,34.69712578751752,41.153952148258675,4,4,3,6
312,118,167,256,4,40,2539,649984,7149824,2945784,2680,6.947390763962425,4.532086943678614,0.0009097747832156058,2.427137902846916,35,58.79920960292169,35.24175230306448,1.7294674189339438,0.0002991057553154038,1.575394689105451,37.52319460205554,1.3299651772574568,0.00017688073727174585,33.54003420251883,41.9081218787009,4,4,3,6
313,118,154,256,4,40,2539,649984,7149824,2794264,2680,7.146345580374725,4.298973513194171,0.0009591076576873195,2.558750354297232,40,60.91842260732572,33.847436038701176,2.030617843293548,0.0004123408825502141,1.5808927649632099,35.720678750840555,1.6366886189067633,0.00026787496352589284,33.64036804323555,42.18126734117745,4,4,3,6
314,118,141,256,4,40,2539,649984,7149824,2540184,2680,7.095505853368305,3.908071583300512,0.0010550416820198853,2.814687439964979,45,64.47207651544988,33.39527499701177,2.1391254274930693,0.0004575857594547405,1.7845450374297802,36.85002840383286,1.4371383537451765,0.0002065366647805396,33.77809660887061,40.22303714420712,4,4,3,6
315,118,128,256,4,40,2539,649984,7149824,2360344,2680,7.2627756990941315,3.6313878495470657,0.001135427717315781,3.029144904302085,50,66.98738318593577,32.96116378294372,2.2487532854000944,0.0005056891338597718,1.5800218097865577,36.35097865813863,1.5221276217778201,0.00023168724969790022,34.18327331132113,42.36594006793531,4,4,3,6
316,118,116,256,4,40,2539,649984,7149824,2109752,2680,7.163260039928835,3.2458522055927532,0.001270291484496756,3.388940501063632,55,70.49225267642952,32.98273531439649,2.2431754036152567,0.0005031835891384469,1.6878900029696524,37.20938228667511,1.3788940121146445,0.00019013486966456213,33.67503165173215,45.45946623658162,4,5,3,6
317,118,103,256,4,40,2539,649984,7149824,1769208,2680,6.765173965746013,2.7219254627806224,0.001514802103540115,4.041256878784179,60,75.2552230656307,30.51975847610866,2.978599252595296,0.0008872053507561255,1.586531633976847,37.63095148951975,1.3135675932631974,0.00017254598220712685,34.562281237124985,41.438267583233575,4,5,3,5
318,118,90,256,4,40,2539,649984,7149824,1513272,2680,6.622344755152947,2.328168077983458,0.001770996886217415,4.72474479141886,65,78.83483565469584,28.8833343292089,3.5961126150297513,0.0012932025939976118,1.5840491610579193,37.77698673890449,1.2916672940152771,0.00016684043984287484,33.6445636614207,40.60258686587563,4,5,3,6
319,118,77,256,4,40,2539,649984,7149824,1324504,2680,6.774852559807266,2.0377486215045293,0.0020233989478325473,5.3981143129805575,70,81.47501253177701,26.0006654730918,5.011488364272713,0.0025115015625240796,1.5965562467463315,36.735564899412374,1.4562024420560074,0.0002120525552249879,33.7293411595225,40.19164946366546,5,5,3,6
320,118,64,256,4,40,2539,649984,7149824,1090072,2680,6.708300512012603,1.6770751280031508,0.0024585531964861035,6.559038302057112,75,84.75386247269863,25.85168476448933,5.098187006529691,0.0025991510753548175,1.5985259660519662,39.93251201991265,1.007800104388846,0.00010156610504061688,34.79169112171547,43.792546226646245,5,5,3,5
321,118,52,256,4,40,2539,649984,7149824,886072,2680,6.711243069651892,1.3632212485230406,0.003024584909578454,8.069123050948456,80,87.60707955888145,23.11452108940205,6.986729760713349,0.00488143927492376,1.5904516060836613,37.86775111220206,1.278240119423717,0.0001633897802904358,33.20373443340603,45.87764673329327,5,6,2,5
322,118,39,256,4,40,2539,649984,7149824,625752,2680,6.319386796740085,0.9627190823158724,0.004282846878635626,11.425970672087345,85,91.24800834258298,20.56474482416341,9.370499866013446,0.008780626773895803,1.586177492979914,39.39648717924842,1.0719527457550586,0.00011490826891318093,33.841163644662544,42.7047313006758,6,6,3,5
323,118,26,256,4,40,2539,649984,7149824,436088,2680,6.605992668221893,0.670921130366286,0.006145548604868742,16.39536974188696,90,93.90071699667013,16.58663211032607,14.813865406330592,0.021945060827687823,1.5903819319792096,38.936779637637265,1.1302148731157584,0.00012773856594120697,33.92685830786739,45.54398420604966,6,6,2,5
324,119,244,256,4,40,2539,649984,7149824,4662360,2680,7.525810471400255,7.173038105553368,0.000574816187510188,1.5335203630779262,5,34.790562676787566,37.68791708714263,1.3049808710207558,0.00017029750737300903,1.5922217089682817,37.67047307724085,1.3076043182721253,0.00017098290531639094,34.43960741500314,41.359847090307916,3,4,4,5
325,119,231,256,4,40,2539,649984,7149824,4206136,2680,7.171477334533656,6.471137751083104,0.0006371643712899441,1.6998556394752808,10,41.171474990153605,36.73697267722363,1.4559664451170722,0.00021198382893068446,1.5848781312815843,36.70896758328476,1.4606683561612812,0.00021335520466908995,34.630268030121954,39.251058152663994,3,4,4,5
326,119,218,256,4,40,2539,649984,7149824,3905720,2680,7.056379200075158,6.008947912564001,0.0006861730999662034,1.8306033202584926,15,45.373200794872716,36.09162166938439,1.5682630731403455,0.00024594490665756,1.7719029881991446,37.06271432206972,1.4023753967464814,0.00019666567533998508,33.35447430065576,39.92478828827285,3,4,3,5
327,119,205,256,4,40,2539,649984,7149824,3628824,2680,6.971871007406412,5.582943580149665,0.0007385312707367456,1.9702867926358512,20,49.24596745318486,36.00615346837335,1.5837707816576434,0.00025083298888324627,1.5915935668163004,37.30097761059072,1.364429559245553,0.00018616680221430142,33.5205079902194,40.445506566705035,3,4,3,5
328,119,192,256,4,40,2539,649984,7149824,3392984,2680,6.960138505973481,5.22010387948011,0.0007898652041978388,2.10723775885769,25,52.54451018654445,36.37115361223785,1.5185962370115442,0.00023061345310656224,1.5811950606293976,35.24455097605576,1.7289102584979343,0.00029891306819393947,33.432829879543064,39.01639905042218,4,4,4,6
329,119,180,256,4,40,2539,649984,7149824,3225272,2680,7.057179116887664,4.962079066561638,0.0008309376697531247,2.2168127215317033,30,54.89019030398511,35.862347116919814,1.6102104623800941,0.00025927777331583165,1.6020696680061515,38.17201112729498,1.2342395067789746,0.00015233471600940065,33.64664254452869,42.14154072275713,4,4,3,5
330,119,167,256,4,40,2539,649984,7149824,3006296,2680,7.090103369472162,4.625184619929106,0.0008914624508032476,2.3782834424820445,35,57.952867091553586,35.96081114601479,1.59206004297685,0.000253465518044345,1.5857973862439394,35.79806794131971,1.6221708872063276,0.0002631438387299764,33.49222613333987,38.79650575751179,4,4,4,6
331,119,154,256,4,40,2539,649984,7149824,2841592,2680,7.267387201219418,4.371787613233557,0.0009431332858482146,2.516133209834487,40,60.256476243331306,34.5071630639527,1.8820963254764251,0.0003542286578371862,1.5893437773920591,37.72691353802965,1.2991351191767488,0.00016877520578783853,33.51689771273075,41.97652548692495,4,4,3,5
332,119,141,256,4,40,2539,649984,7149824,2592824,2680,7.242545370238465,3.989058192201654,0.001033622027565311,2.7575431267220605,45,63.7358346163486,34.45358609977923,1.893741493361565,0.0003586256843679291,1.595557319931686,37.778077960469346,1.2915050300757411,0.0001667985242710941,34.05975003054654,41.350183445424754,4,4,3,5
333,119,128,256,4,40,2539,649984,7149824,2403672,2680,7.396095903899173,3.6980479519495866,0.0011149607766783487,2.974542283639365,50,66.38138225500376,33.740506159981614,2.055770794873367,0.0004226193561054274,1.5952853290364146,38.27353360557028,1.2198974394275828,0.0001488149762721973,33.76052079951204,43.453244771770635,4,4,3,5
334,119,116,256,4,40,2539,649984,7149824,2155256,2680,7.317760182531814,3.315860082709728,0.0012434717731907485,3.3173896743588696,55,69.85581742991157,33.664787590787824,2.0737701573577905,0.0004300522665547755,1.5823847278952599,37.41861993441412,1.3460742093083933,0.00018119157769652162,33.916171992072826,41.388007127741396,4,5,3,5
335,119,103,256,4,40,2539,649984,7149824,1783576,2680,6.820114944726346,2.7440306222922413,0.00150259927247283,4.0087016196674545,60,75.05426707007054,30.74225712450908,2.9032681100948756,0.0008428965719093871,1.5813367390073834,35.91570625487245,1.600348942686764,0.0002561116738358644,33.12325393327226,42.62595561181557,4,5,3,5
336,119,90,256,4,40,2539,649984,7149824,1544856,2680,6.760561901010897,2.3767600433241434,0.0017347895208355989,4.628149160827935,65,78.39309051523506,30.791131185203945,2.886977776345121,0.0008334640681110619,1.5736882840283217,36.79678994602986,1.4459740622655681,0.0002090840988744789,33.313424837426304,41.98516359026793,4,5,3,5
337,119,77,256,4,40,2539,649984,7149824,1354264,2680,6.927075287847245,2.083534363922804,0.001978934683340914,5.279490557232563,70,81.05877850979269,27.04427950179849,4.444122534458901,0.001975022510128541,1.5721485279500484,38.36596947823551,1.206984036239337,0.00014568104637366008,33.93275965835409,42.93275521266308,5,5,3,5
338,119,64,256,4,40,2539,649984,7149824,1119544,2680,6.889671130366286,1.7224177825915714,0.002393831774365277,6.386371594149046,75,84.3416565218948,27.9284665143462,4.013993586869826,0.001611214451543209,1.7673258520662785,36.525759190074155,1.491804938435168,0.00022254819743395553,33.70920737702655,42.40892511225364,5,5,3,5
339,119,52,256,4,40,2539,649984,7149824,897944,2680,6.801163389584028,1.3814863135092557,0.0029845959213492157,7.9624386375987815,80,87.44103351355223,26.223856921942254,4.884354240945997,0.002385691635104714,1.6123077878728507,36.82383471040686,1.441478816360025,0.00020778611780146987,34.20020043118541,41.87367939372823,5,6,3,5
340,119,39,256,4,40,2539,649984,7149824,645016,2680,6.513931388291373,0.9923567349350138,0.00415493569151773,11.084723479727634,85,90.97857513695442,24.241619470546823,6.136475808656988,0.003765633535023244,1.5915101058781147,36.5545227952995,1.4868729487304069,0.00022107911656662555,33.99105613031343,41.39699293338184,6,6,3,5
341,119,26,256,4,40,2539,649984,7149824,454968,2680,6.891992607628685,0.6999679992122882,0.005890524168732746,15.715004132158745,90,93.63665455261557,19.917229603965133,10.095748422906926,0.01019241362186277,1.5803245850838723,37.64970582124327,1.3107344343296787,0.00017180247573375426,34.11986174044453,44.149902120456325,6,6,3,5
342,121,244,256,4,40,2539,649984,7149824,4701400,2680,7.588827407201751,7.233101122489169,0.0005700429659250436,1.5207861488067385,5,34.244535250098465,39.91579975087231,1.0097410500821726,0.00010195769882210487,1.5894147539511323,36.858143890140155,1.4357962195213665,0.00020615107839918478,34.08358250423365,44.16245996511523,3,4,3,8
343,121,231,256,4,40,2539,649984,7149824,4424920,2680,7.5445048584079695,6.807736805829067,0.0006056606673114994,1.6158086473879754,10,38.11148358337212,35.98794624317646,1.5870941390191604,0.000251886780610897,1.587816840969026,37.709413334192845,1.3017552362791462,0.0001694566695180176,32.861454795372865,43.59908127651971,3,4,4,8
344,121,218,256,4,40,2539,649984,7149824,4077720,2680,7.367127851389878,6.273569810949192,0.000657230020697841,1.753387677427582,15,42.96754717318916,36.33873529590742,1.5242746788005637,0.00023234132964325614,1.6044711768627167,36.061828789671104,1.5736515016792254,0.0002476379048737281,33.21588706770491,41.951704853227795,3,4,3,8
345,121,205,256,4,40,2539,649984,7149824,3627096,2680,6.968551090788576,5.58028505317054,0.0007388831175132944,1.9712254652206613,20,49.27013588026782,36.06075979910252,1.573845186172693,0.0002476988670038959,1.5920356609858577,36.36361051999358,1.5199156052412846,0.00023101434470559803,33.32372259091244,41.04390894163912,3,4,3,8
346,121,192,256,4,40,2539,649984,7149824,3314808,2680,6.799773532886963,5.099830149665222,0.0008084932822655189,2.1569345796196946,25,53.63790773031616,35.5920582059017,1.661105016162328,0.0002759269874719647,1.5821181149221952,36.82062839970718,1.4420110223056668,0.00020793957884510344,33.30697258511328,45.42430803971987,3,4,4,8
347,121,180,256,4,40,2539,649984,7149824,3142840,2680,6.876810642860269,4.835257483261127,0.0008527319239923127,2.2749564088531393,30,56.043113788535216,36.47931383237052,1.499803312236286,0.00022494099753949342,1.5753212296403944,36.76389144411134,1.4514611896186862,0.00021067395849692919,33.37900865802051,40.89429967494343,4,4,3,7
348,121,167,256,4,40,2539,649984,7149824,2923256,2680,6.894260317490265,4.497427628987791,0.0009167859400613563,2.445842581012405,35,59.114294281929176,36.87413677121735,1.4331549942394888,0.00020539332375135887,1.5967574608512218,36.34646623139285,1.5229185912833894,0.0002319281035676583,33.358574035297345,41.01610567825794,4,4,3,8
349,121,154,256,4,40,2539,649984,7149824,2781816,2680,7.114509751768515,4.279822272548247,0.000963399448417868,2.5702001857779235,40,61.09252479501593,35.797044478613586,1.6223620396722218,0.0002632058587769412,1.5974617828615008,36.685506669738146,1.464619009180855,0.00021451088420539093,33.695634273196646,41.80255636685839,4,4,3,8
350,121,141,256,4,40,2539,649984,7149824,2527288,2680,7.05948340637823,3.8882310949192593,0.0010604252463510292,2.8290499539427243,45,64.65244459164309,35.61701793271459,1.656338525279806,0.00027434573103260826,1.564777835737914,36.480608589582815,1.4995797615683708,0.00022487394613054514,33.60535830396637,41.6515574894817,4,4,3,7
351,121,128,256,4,40,2539,649984,7149824,2344600,2680,7.214331429696731,3.6071657148483656,0.0011430521197645653,3.049485626546106,50,67.20758441046941,35.68722685743072,1.6430041376084594,0.0002699462596198517,1.7503915210254495,36.91090364412678,1.4271013527038998,0.00020366182708893006,33.80561989874108,42.89927013369369,4,5,3,7
352,121,116,256,4,40,2539,649984,7149824,2102744,2680,7.139465714169304,3.235070401732966,0.001274525096730748,3.4002351213462028,55,70.59026907515485,34.91628808590961,1.7955007699806538,0.000322382301500112,1.5782498279586439,36.61288274062031,1.4769162297926006,0.00021812815498247897,33.56769108830278,43.582702467417015,4,5,3,7
353,121,103,256,4,40,2539,649984,7149824,1866200,2680,7.136056164608802,2.8711475974793226,0.0014360733040402957,3.8312206623084344,60,73.89865820473344,33.962133442134274,2.0039797461930364,0.0004015934823151906,1.575202669948339,38.79326776470887,1.1490438741895443,0.00013203018248125173,34.24525102925287,43.33435771828089,4,5,3,7
354,121,90,256,4,40,2539,649984,7149824,1509176,2680,6.6044199378582995,2.3218663844033083,0.001775803484815555,4.73756805037981,65,78.89212377815174,32.00846276052804,2.509440264003065,0.0006297290438599772,1.606862273067236,38.87872756160078,1.1377939546090232,0.000129457508314484,35.05437147073029,42.798808550607596,5,5,3,7
355,121,77,256,4,40,2539,649984,7149824,1327032,2680,6.787783307673028,2.041637948011028,0.0020195443666769152,5.387830888780376,70,81.43965501808157,30.140587482328222,3.111505878924559,0.0009681468834582092,1.584558800328523,36.971994170556414,1.4170993259850364,0.00020081704997072447,33.75784189517651,40.75176114351864,5,5,3,7
356,121,64,256,4,40,2539,649984,7149824,1090456,2680,6.71066364710516,1.67766591177629,0.0024576874261776726,6.556728561262444,75,84.74849171112464,31.377607964314173,2.6984824740805675,0.000728180766291998,1.587498642969876,39.60836199182265,1.046120952134948,0.00010943690464957303,33.698464590589175,43.81615396143877,5,6,2,6
357,121,52,256,4,40,2539,649984,7149824,915512,2680,6.934226073257188,1.4085146711303662,0.002927323727051093,7.809645313223639,80,87.19532117154212,29.234712025681183,3.4535392700610013,0.0011926933489853472,1.592374143190682,37.338937536840106,1.3584796064538212,0.00018454668411509287,33.72997585486286,45.932952244403744,5,6,2,6
358,121,39,256,4,40,2539,649984,7149824,633144,2680,6.3940376283818585,0.9740916699487987,0.004232844345046309,11.29257167405835,85,91.14462118228364,27.48562195718893,4.22395129785424,0.0017841764566644523,1.5932475910522044,38.25386030118218,1.2226636054959117,0.0001494906292204262,33.5905239917663,43.53540793660503,6,6,2,6
359,121,26,256,4,40,2539,649984,7149824,444504,2680,6.73348077680492,0.6838691413942497,0.0060291920882601735,16.084948616885338,90,93.78300780550683,24.320339891235804,6.081112045553471,0.0036979923710575525,1.5865750410594046,38.15269391409806,1.236987480843295,0.0001530138027763041,34.051576100562606,45.232775380728974,6,6,2,5
