,record,m,n,d,f,w,s,u_bits,c_bits,overhead_bits,bpm,bps,overhead,cr,pss,snr,prd,nmse,rtime,qc_snr,qc_prd,qc_nmse,min_qc_snr,max_qc_snr,min_q,max_q,min_rng,max_rng
0,100,26,256,4,159,2539,649984,7149824,416056,10296,6.302541885054685,0.6401019102008665,0.024746668717672622,17.184763589516795,94.18089172544667,17.33197021484375,13.595697402954102,0.018484298139810562,8.098497498780487,38.317516,1.2137356,0.00014731543,33.71533203125,44.0595817565918,5,5,2,4
1,100,39,256,4,159,2539,649984,7149824,672760,10296,6.794114379778027,1.0350408625443088,0.015304120340091563,10.627599738391105,90.59053761323355,14.387666702270508,19.081680297851562,0.03641105443239212,2.990726059069856,40.36622,0.9587139,9.191324e-05,33.16377639770508,46.3676643371582,4,5,2,4
2,100,52,256,4,159,2539,649984,7149824,877080,10296,6.643136304420275,1.3493870618353683,0.01173895197701464,8.151849318192182,87.73284489240574,20.831745147705078,9.086837768554688,0.008257061243057251,2.8617689372040327,39.642387,1.0420307,0.00010858279,33.37111282348633,44.32610321044922,4,4,2,4
3,100,64,256,4,159,2539,649984,7149824,1039000,10296,6.394003544702639,1.5985008861756598,0.009909528392685274,6.881447545717036,85.46817376203946,23.269821166992188,6.862918853759766,0.0047099655494093895,2.8309430009685452,40.18922,0.97845083,9.5736614e-05,33.71438980102539,46.170719146728516,3,4,2,4
4,100,77,256,4,159,2539,649984,7149824,1358392,10296,6.948190053349565,2.089885289484049,0.007579549938456645,5.263446781194236,81.00104282287228,20.808198928833008,9.111501693725586,0.008301946334540844,2.8505215088371187,37.472496,1.3377502,0.00017895758,33.63450622558594,45.94888687133789,3,4,3,4
5,100,90,256,4,159,2539,649984,7149824,1640760,10296,7.180254693448864,2.5243082906656165,0.006275140788415125,4.35762939125771,77.05174281213075,25.152931213378906,5.525269508361816,0.003052860265597701,2.8824018219020218,39.975086,1.0028722,0.000100575286,33.96442413330078,45.82698059082031,3,4,3,5
6,100,103,256,4,159,2539,649984,7149824,1821240,10296,6.964136174703747,2.801976664040961,0.005653291164261711,3.925800004392612,74.5274848723549,26.332748413085938,4.823502063751221,0.0023266172502189875,2.9952958978246897,39.395264,1.0721035,0.0001149406,34.50814437866211,44.924076080322266,3,3,3,5
7,100,116,256,4,159,2539,649984,7149824,2006712,10296,6.813407396341215,3.087325226467113,0.005130781098632988,3.5629547239464356,71.93340703211716,27.74382781982422,4.10023307800293,0.0016811914974823594,2.876755750039593,36.527866,1.4914428,0.00022244017,33.38694381713867,43.058128356933594,3,3,3,6
8,100,128,256,4,159,2539,649984,7149824,2231416,10296,6.866064395431272,3.433032197715636,0.004614110502030998,3.2041645305043973,68.79061638440331,27.523834228515625,4.205409526824951,0.0017685467610135674,2.801865441026166,36.635155,1.4731339,0.00021701235,33.599334716796875,42.1641845703125,2,3,3,5
9,100,141,256,4,159,2539,649984,7149824,2413080,10296,6.740465755490937,3.712522154391493,0.004266746233029987,2.9629452815488917,66.24979859644098,29.050399780273438,3.527604341506958,0.0012443993473425508,2.84947024891153,36.624325,1.4749715,0.00021755412,33.298194885253906,40.711822509765625,2,3,3,5
10,100,154,256,4,159,2539,649984,7149824,2698264,10296,6.900825051277986,4.151277569909413,0.0038157867428835726,2.649786677656449,62.261113000823514,29.89738655090332,3.199856758117676,0.001023908262141049,2.779400920029729,36.395058,1.5144223,0.00022934747,33.53260040283203,46.65972900390625,2,3,3,5
11,100,167,256,4,159,2539,649984,7149824,2998648,10296,7.072066186649938,4.6134181764474205,0.003433547385355,2.3843492133788295,58.05983475956891,30.448928833007812,3.0029871463775635,0.0009017933043651283,3.0002552149817348,36.846478,1.4377252,0.00020670539,33.210914611816406,46.34793472290039,2,3,3,5
12,100,180,256,4,159,2539,649984,7149824,3355768,10296,7.342715854886,5.162847085466719,0.0030681501224160907,2.130607360222757,53.065026495757095,31.11665153503418,2.7807843685150146,0.0007732762605883181,2.890276851132513,38.360565,1.2077351,0.0001458624,33.86764144897461,45.623714447021484,2,3,3,6
13,100,192,256,4,159,2539,649984,7149824,3601560,10296,7.387997243009059,5.540997932256794,0.0028587612034784928,1.9852019680360733,49.62729152493824,31.96902847290039,2.5208587646484375,0.0006354728830046952,2.8555306589696556,40.396767,0.9553481,9.126901e-05,33.86815643310547,46.789710998535156,2,3,3,6
14,100,205,256,4,159,2539,649984,7149824,3853592,10296,7.403706087474424,5.928749015360378,0.002671792966146909,1.8553661103718297,46.10228167854202,32.14988327026367,2.4689126014709473,0.0006095529533922672,2.901088492013514,36.76925,1.450566,0.0002104142,33.764522552490234,45.49584197998047,2,3,3,6
15,101,26,256,4,159,2539,649984,7149824,449464,10296,6.808616354106705,0.6915000984639622,0.022907285121834008,15.907445312639055,93.71363546850944,17.03650665283203,14.066128730773926,0.019785599783062935,1.5682205278426409,40.183098,0.97914076,9.587167e-05,33.564029693603516,46.09297561645508,4,6,2,5
16,101,39,256,4,159,2539,649984,7149824,707224,10296,7.142161763666293,1.0880637061835368,0.014558329468456952,10.109702159428979,90.10851176196785,15.003016471862793,17.7766170501709,0.03160081431269646,1.5788779980503025,40.78062,0.91404766,8.354831e-05,33.686092376708984,46.2156867980957,4,6,2,6
17,101,52,256,4,159,2539,649984,7149824,922680,10296,6.988517587178477,1.4195426348956282,0.011158798283261802,7.74897472579876,87.09506695549429,20.78827476501465,9.132428169250488,0.008340124040842056,1.6880410672165458,41.37137,0.8539485,7.29228e-05,36.32229995727539,45.676025390625,3,5,3,5
18,101,64,256,4,159,2539,649984,7149824,1114264,10296,6.857178022843639,1.7142945057109098,0.009240180065047421,6.416633760042504,84.41550449353718,22.76558494567871,7.273118019104004,0.005289824679493904,1.577374864835292,38.989822,1.123334,0.00012618794,33.529144287109375,46.30883026123047,3,5,3,5
19,101,77,256,4,159,2539,649984,7149824,1416920,10296,7.247561418494857,2.179930582906656,0.007266465290912683,5.046032238940801,80.18244924630312,20.773784637451172,9.147674560546875,0.008367994800209999,1.5633962261490524,37.02335,1.4087453,0.00019845636,33.58646774291992,46.07109069824219,3,5,3,5
20,101,90,256,4,159,2539,649984,7149824,1682872,10296,7.364544221259464,2.58909757778653,0.006118112369805903,4.248584562581112,76.46274929284972,24.68529510498047,5.8308939933776855,0.0033999327570199966,1.5665142450015992,38.96115,1.1270478,0.00012702368,33.846923828125,45.71300506591797,3,4,3,6
21,101,103,256,4,159,2539,649984,7149824,1884280,10296,7.20519124951724,2.898963666797952,0.005464156070223109,3.794459422166557,73.64578484729135,25.81584930419922,5.119263172149658,0.0026206853799521923,1.5779411778785284,38.278065,1.2192612,0.00014865979,33.3989372253418,44.96293640136719,3,4,3,8
22,101,116,256,4,159,2539,649984,7149824,2081560,10296,7.067539487444147,3.202478830248129,0.004946290282288284,3.434839255174004,70.88655608865336,27.49544906616211,4.219175338745117,0.001780143822543323,1.5582732979673892,37.290405,1.3660914,0.00018662059,33.38650131225586,45.24871063232422,2,4,3,6
23,101,128,256,4,159,2539,649984,7149824,2309784,10296,7.1072026388341865,3.5536013194170932,0.004457559667917,3.0954513495634224,67.6945334598446,26.92395782470703,4.506113052368164,0.002030505333095789,1.5603503820020705,36.66653,1.4678218,0.00021545008,33.40876770019531,45.544471740722656,2,4,3,7
24,101,141,256,4,159,2539,649984,7149824,2530520,10296,7.068511364556884,3.8932035250098465,0.0040687289568942355,2.825436669143101,64.60724068172867,28.360244750976562,3.819334030151367,0.0014587313635274768,1.5745441510807723,36.18863,1.5508454,0.00024051215,32.8647575378418,46.90628433227539,2,4,3,8
25,101,154,256,4,159,2539,649984,7149824,2823928,10296,7.222211423865619,4.344611559669161,0.0036459853084072967,2.531871917414325,60.5035312757349,29.544795989990234,3.332423448562622,0.0011105046141892672,1.6658365239854902,36.4472,1.505358,0.00022661025,33.29188537597656,46.98016357421875,2,4,3,6
26,101,167,256,4,159,2539,649984,7149824,3100184,10296,7.311530542695625,4.769631252461599,0.0033210931996294412,2.3062579511409647,56.639715886712736,30.24272918701172,3.0751302242279053,0.000945642648730427,1.576155275804922,37.91267,1.2716463,0.00016170843,33.226097106933594,46.58341598510742,2,4,3,8
27,101,180,256,4,159,2539,649984,7149824,3436504,10296,7.519373331582863,5.287059373769201,0.002996068097112647,2.0805516303778493,51.93582387482545,30.535436630249023,2.973227024078369,0.0008840079535730183,1.5741539150476453,37.62478,1.3145015,0.0001727914,32.29882049560547,46.82869338989258,2,4,3,8
28,101,192,256,4,159,2539,649984,7149824,3676536,10296,7.541797951949587,5.65634846396219,0.002800462174176997,1.9447175275857491,48.57865032761646,31.498571395874023,2.6611626148223877,0.0007081786752678454,1.5486161629669373,39.197186,1.0968332,0.000120304314,33.31568145751953,46.99890899658203,2,3,4,7
29,101,205,256,4,159,2539,649984,7149824,3927672,10296,7.5460321424797545,6.042721051595116,0.002621400157650639,1.8203719658871718,45.06617225822622,31.73915672302246,2.5884640216827393,0.0006700145895592868,1.5758662598673254,37.849068,1.2809922,0.00016409408,33.650333404541016,45.945655822753906,2,3,3,7
30,102,26,256,4,159,2539,649984,7149824,427544,10296,6.476565576998818,0.6577761914139425,0.024081731938701046,16.723013303893868,94.02021644169143,12.562947273254395,23.54250144958496,0.05542493611574173,1.5841273358091708,39.123028,1.1062378,0.00012237621,33.548587799072266,46.04477310180664,4,5,2,3
31,102,39,256,4,159,2539,649984,7149824,676376,10296,6.830631886165561,1.0406040764080347,0.015222302388020864,10.570783114717258,90.53996294174515,12.10403823852539,24.819786071777344,0.061602186411619186,1.5644722578581423,40.76879,0.9152935,8.377621e-05,33.870792388916016,45.513671875,4,4,3,4
32,102,52,256,4,159,2539,649984,7149824,872760,10296,6.6104159723694975,1.342740744387554,0.011797057610339612,8.192199459186947,87.79326596011315,15.574162483215332,16.645307540893555,0.027706626802682877,1.6765383461024612,40.021915,0.9974796,9.949656e-05,33.44614028930664,46.426143646240234,3,4,2,3
33,102,64,256,4,159,2539,649984,7149824,1124376,10296,6.9194072469476176,1.7298518117369044,0.00915707912655553,6.358926195507553,84.27407443875542,17.32262420654297,13.610333442687988,0.018524115905165672,1.5801506929565217,41.0332,0.8878506,7.882786e-05,33.90767288208008,46.58952331542969,3,4,3,3
34,102,77,256,4,159,2539,649984,7149824,1404696,10296,7.185035523751553,2.161123966128397,0.007329699806933315,5.089944016356564,80.35341848974184,16.484060287475586,14.989837646484375,0.022469524294137955,1.5781666249968116,37.39656,1.3494966,0.00018211412,33.61693572998047,44.814170837402344,3,4,3,4
35,102,90,256,4,159,2539,649984,7149824,1604024,10296,7.019491488337491,2.4677899763686493,0.0064188565757120845,4.457429564644918,77.56554566937592,19.396625518798828,10.719354629516602,0.011490456759929657,1.5828221160918476,38.67612,1.1646457,0.00013563996,33.48951721191406,43.47320556640625,2,3,3,4
36,102,103,256,4,159,2539,649984,7149824,1789240,10296,6.8417731925649194,2.752744682946042,0.005754398515570857,3.9960117144709484,74.97504833685417,20.70818519592285,9.217022895812988,0.008495351299643517,1.5569037490058695,38.281178,1.2188238,0.00014855315,33.828548431396484,43.31871795654297,2,3,3,4
37,102,116,256,4,159,2539,649984,7149824,1993688,10296,6.769186891390855,3.067287810161481,0.005164298526148524,3.586230142329191,72.11556536216835,22.33954429626465,7.638758659362793,0.005835062824189663,1.5617160380352288,36.190994,1.5504236,0.00024038136,33.120750427246094,46.017578125,2,3,3,4
38,102,128,256,4,159,2539,649984,7149824,2284344,10296,7.028923788893265,3.5144618944466326,0.00450720206763955,3.1299243896716082,68.05034641412152,22.153291702270508,7.804325103759766,0.006090749520808458,1.5605755262076855,36.851967,1.4368173,0.00020644438,33.464778900146484,46.26934051513672,2,3,3,4
39,102,141,256,4,159,2539,649984,7149824,2584984,10296,7.220645867725888,3.976996356833399,0.00398300337642322,2.765906481432767,63.84548766515092,23.99820899963379,6.310873508453369,0.003982712514698505,1.5501726709771897,37.367756,1.3539797,0.00018332612,33.17920684814453,46.09062957763672,2,3,3,4
40,102,154,256,4,159,2539,649984,7149824,2884248,10296,7.376480156314737,4.437413844033084,0.0035697346414039293,2.4789213687588583,59.659874145153786,24.86394500732422,5.7121901512146,0.003262911457568407,1.699697420932353,36.813118,1.4432582,0.0002082994,33.901371002197266,46.07914352416992,2,3,3,4
41,102,167,256,4,159,2539,649984,7149824,3119320,10296,7.356661234443283,4.799071977156361,0.0033007193875588267,2.292109818806663,56.372072934942175,25.850568771362305,5.098840236663818,0.002599817467853427,1.591239530825987,39.01263,1.1203879,0.0001255269,33.244380950927734,46.484920501708984,2,3,3,5
42,102,180,256,4,159,2539,649984,7149824,3349080,10296,7.328081922016542,5.152557601417881,0.0030742771149091692,2.1348621113858135,53.15856725983745,26.315889358520508,4.832873344421387,0.0023356666788458824,1.5574542540125544,36.933067,1.4234641,0.000202625,33.4183349609375,45.03520965576172,2,2,3,4
43,102,192,256,4,159,2539,649984,7149824,3532696,10296,7.24673427858737,5.435050708940528,0.002914487971792648,2.023900160104351,50.590448100540655,26.518823623657227,4.721269130706787,0.0022290381602942944,1.548978258157149,39.347534,1.078011,0.000116210766,34.02136993408203,45.43896484375,2,2,3,5
44,102,205,256,4,159,2539,649984,7149824,3759768,10296,7.223446911113459,5.784400846790075,0.0027384668415710756,1.9016662730253568,47.41453775645387,27.29014778137207,4.320087432861328,0.0018663156079128385,1.5713127679191525,36.855377,1.4362533,0.00020628238,33.41545867919922,44.9724235534668,2,2,3,4
45,103,26,256,4,159,2539,649984,7149824,457528,10296,6.930772260429606,0.7039065576998819,0.022503540766903883,15.627074189994929,93.60084947545562,19.51320457458496,10.576444625854492,0.011186118237674236,1.5521818851120772,39.928974,1.0082105,0.00010164884,33.999595642089844,46.21260452270508,4,6,2,4
46,103,39,256,4,159,2539,649984,7149824,707096,10296,7.140869108572929,1.0878667782591571,0.01456096484777173,10.11153223890391,90.11030201582584,15.770319938659668,16.273611068725586,0.026483045890927315,1.5498382421210413,40.007233,0.9991671,9.983349e-05,33.17657470703125,46.095191955566406,3,6,2,5
47,103,52,256,4,159,2539,649984,7149824,928472,10296,7.032387069409519,1.4284536234738086,0.011089187396065793,7.700635021842339,87.01405796841992,22.842126846313477,7.209307670593262,0.005197412334382534,1.6730697969906034,38.47798,1.1915185,0.00014197164,32.902347564697266,45.619239807128906,3,5,3,5
48,103,64,256,4,159,2539,649984,7149824,1179896,10296,7.261077195746357,1.8152692989365893,0.00872619281699404,6.059706957223349,83.4975518278492,24.59946060180664,5.888800144195557,0.0034677968360483646,1.5728017690125855,38.279446,1.2190671,0.00014861247,33.93590545654297,46.114017486572266,3,5,3,5
49,103,77,256,4,159,2539,649984,7149824,1456536,10296,7.450197695176033,2.240879775502166,0.007068826311193132,4.908786325912988,79.62836567725303,22.814931869506836,7.2319159507751465,0.005230060778558254,1.5894134370610122,37.354355,1.3560706,0.00018389276,33.47954177856445,45.897762298583984,3,5,3,6
50,103,90,256,4,159,2539,649984,7149824,1676280,10296,7.33569646842589,2.5789557896809767,0.006142171952179826,4.2652921946214235,76.55494736653658,25.902624130249023,5.068375587463379,0.0025688433088362217,1.5677956989966333,37.49373,1.3344846,0.00017808491,33.4764518737793,44.49860763549805,2,5,3,6
51,103,103,256,4,159,2539,649984,7149824,1885080,10296,7.20825032407071,2.900194466325325,0.0054618371634095105,3.7928491098521016,73.63459576067886,27.066232681274414,4.43290376663208,0.001965063624083996,1.5710564441978931,37.247337,1.3728815,0.00018848036,33.20468521118164,46.65748596191406,2,4,3,6
52,103,116,256,4,159,2539,649984,7149824,2126744,10296,7.220953131153998,3.2719943875541553,0.004841203266589679,3.3618639572981044,70.2545964767804,28.17938232421875,3.899695634841919,0.0015207628021016717,1.6112041438464075,37.32815,1.3601671,0.00018500547,32.97399139404297,46.85717010498047,2,4,3,6
53,103,128,256,4,159,2539,649984,7149824,2384248,10296,7.336328278849941,3.6681641394249707,0.0043183427227368966,2.9987752951874134,66.65305327795481,27.8702449798584,4.040989398956299,0.001632959465496242,1.5520776680205013,37.047535,1.4048276,0.00019735405,33.173824310302734,46.804508209228516,2,4,3,6
54,103,141,256,4,159,2539,649984,7149824,2675032,10296,7.472177296584627,4.115535151634502,0.0038489259193908707,2.6727994281937564,62.58604407604999,29.584136962890625,3.3173632621765137,0.001100489986129105,1.6511901940684766,37.227238,1.3760619,0.00018935464,33.048465728759766,46.492591857910156,2,4,3,6
55,103,154,256,4,159,2539,649984,7149824,2988600,10296,7.643360971442894,4.597959334383615,0.003445091347119052,2.392365656160075,58.20036968742168,29.88855743408203,3.203111410140991,0.0010259924456477165,1.5863568701315676,37.92116,1.2704039,0.00016139259,33.14844512939453,46.814796447753906,2,4,3,6
56,103,167,256,4,159,2539,649984,7149824,3257464,10296,7.682462566006231,5.011606439543127,0.003160740993607297,2.194904993577826,54.43994145869885,30.777667999267578,2.89145565032959,0.0008360515930689871,1.5922720690723504,38.53111,1.184253,0.0001402455,33.463401794433594,46.57282257080078,2,4,3,6
57,103,180,256,4,159,2539,649984,7149824,3499736,10296,7.657730515075927,5.384341768412761,0.002941936191758464,2.0429609547691596,51.0514384689749,31.29540252685547,2.724142074584961,0.0007420951151289046,1.571023765951395,38.295403,1.2168299,0.0001480675,33.59363555908203,46.378623962402344,2,4,3,6
58,103,192,256,4,159,2539,649984,7149824,3698456,10296,7.586763161349613,5.690072371012209,0.002783864401793613,1.9331915804865598,48.27206935443446,31.689159393310547,2.6034059524536133,0.0006777722155675292,1.5792544761206955,37.564213,1.3236995,0.00017521804,33.387229919433594,45.08745193481445,2,4,4,7
59,103,205,256,4,159,2539,649984,7149824,3929816,10296,7.550151298283365,6.046019594328476,0.002619969993506057,1.8193788207895738,45.036185506104765,32.25559616088867,2.439046859741211,0.000594894983805716,1.545893999980763,38.182674,1.2327251,0.00015196111,33.5164794921875,45.06294631958008,2,4,3,6
60,104,26,256,4,159,2539,649984,7149824,458520,10296,6.945799375889963,0.7054327491138244,0.022454854750065426,15.593265288318939,93.58697500805614,11.940435409545898,25.291711807250977,0.06396706402301788,1.5550512571353465,38.968765,1.1260605,0.00012680123,33.39638137817383,46.71104049682617,4,5,2,4
61,104,39,256,4,159,2539,649984,7149824,702872,10296,7.098211490491916,1.0813681567546278,0.014648470845331725,10.172298796936,90.16938039313975,11.17859172821045,27.61025047302246,0.07623260468244553,1.5556161010172218,39.08134,1.11156,0.00012355657,33.756168365478516,45.44023895263672,3,5,2,5
62,104,52,256,4,159,2539,649984,7149824,928952,10296,7.036022661859605,1.4291921031902324,0.011083457487577398,7.696656016672551,87.00734451645243,13.941030502319336,20.088544845581055,0.04035496339201927,1.6722575819585472,39.042755,1.1165087,0.00012465917,33.971534729003906,46.34815216064453,3,4,2,5
63,104,64,256,4,159,2539,649984,7149824,1172248,10296,7.214011421819614,1.8035028554549035,0.008783124390060806,6.099241798663764,83.60451949586451,15.311606407165527,17.15614128112793,0.029433321207761765,1.5970387319102888,38.371933,1.2061553,0.00014548107,33.006500244140625,46.19023132324219,3,4,3,5
64,104,77,256,4,159,2539,649984,7149824,1439192,10296,7.361482943995744,2.21419604174872,0.0071540141968549015,4.967943123641599,79.87094507501163,14.53966236114502,18.750673294067383,0.035158779472112656,1.5627918019890785,37.482937,1.336143,0.00017852781,33.429325103759766,46.900428771972656,2,4,3,6
65,104,90,256,4,159,2539,649984,7149824,1650136,10296,7.221285720537394,2.5387332611264277,0.006239485715116814,4.332869533177871,76.92060671703247,17.20561408996582,13.794922828674316,0.019029991701245308,1.5568059929646552,37.668648,1.3078793,0.00017105482,33.45600509643555,45.1462516784668,2,4,3,6
66,104,103,256,4,159,2539,649984,7149824,1868568,10296,7.145111025287075,2.8747907640803465,0.0055101018533978965,3.826365430639934,73.86553850836049,18.33611297607422,12.11139965057373,0.014668598771095276,1.5521349022164936,37.23896,1.3742062,0.00018884426,33.22579574584961,46.48503875732422,2,4,3,5
67,104,116,256,4,159,2539,649984,7149824,2113112,10296,7.174668278306691,3.2510215636077198,0.004872434589363934,3.3835518420225714,70.44525851265709,19.89803123474121,10.118087768554688,0.01023756992071867,1.5638704700395463,37.37095,1.3534818,0.0001831913,33.46042251586914,46.358360290527344,2,3,3,6
68,104,128,256,4,159,2539,649984,7149824,2370840,10296,7.295071878692399,3.6475359393461995,0.004342764589765653,3.0157345076006816,66.84058236958,19.591779708862305,10.481199264526367,0.01098555326461792,1.5714243110269304,37.01583,1.4099652,0.00019880017,33.3593864440918,47.05955505371094,2,3,3,6
69,104,141,256,4,159,2539,649984,7149824,2660696,10296,7.432132491990201,4.093479224103978,0.0038696641780947543,2.6872006422379706,62.786552508145654,21.21078872680664,8.698822975158691,0.007566950749605894,1.6730849191080783,37.37274,1.3532023,0.00018311568,33.09532928466797,46.8286018371582,2,3,3,7
70,104,154,256,4,159,2539,649984,7149824,2944792,10296,7.5313217699984145,4.530560752264671,0.0034963420166857287,2.4279555228348895,58.813084070321175,21.97911834716797,7.962401866912842,0.006339984014630318,1.5692234709858892,37.702732,1.3027563,0.00016971742,33.46672821044922,46.18544387817383,2,3,3,7
71,104,167,256,4,159,2539,649984,7149824,3180504,10296,7.5009586970210815,4.893203525009846,0.0032372227797858454,2.2480160377097467,55.516331590819576,22.960111618041992,7.112042427062988,0.005058114882558584,1.5658065250609075,37.943954,1.2670747,0.00016054783,33.51648712158203,46.28495788574219,2,3,3,6
72,104,180,256,4,159,2539,649984,7149824,3420344,10296,7.484013828716468,5.262197223316266,0.0030102235330715273,2.0903815522649185,52.16184342439758,23.275047302246094,6.858792304992676,0.004704303108155727,1.56773391016759,37.901573,1.2732719,0.00016212215,33.76457977294922,46.07719421386719,1,3,3,6
73,104,192,256,4,159,2539,649984,7149824,3623800,10296,7.433618878823684,5.575214159117763,0.002841216402671229,1.9730183784977096,49.316234917111245,23.4288387298584,6.738419055938721,0.004540629219263792,1.5573240958619863,38.199677,1.2303141,0.0001513673,33.73759460449219,46.26184844970703,1,3,3,7
74,104,205,256,4,159,2539,649984,7149824,3854968,10296,7.406349724781218,5.93086599054746,0.00267083929101357,1.8547038522758166,46.083036449568546,24.310056686401367,6.088315486907959,0.003706759074702859,1.5569970421493058,38.537052,1.1834426,0.00014005364,33.36338806152344,47.93193817138672,1,3,3,6
75,105,26,256,4,159,2539,649984,7149824,468216,10296,7.092677310873451,0.7203500393855848,0.021989850838074736,15.27035385377689,93.45136327831287,16.086883544921875,15.691184997558594,0.024621330201625824,1.5786290559917688,39.08624,1.1109328,0.0001234172,33.240821838378906,46.251522064208984,4,6,2,6
76,105,39,256,4,159,2539,649984,7149824,721816,10296,7.289524444309793,1.11051348956282,0.014264022964301152,9.90532767353453,89.90442282215618,16.0314998626709,15.791557312011719,0.024937331676483154,1.5561516562011097,39.549423,1.0532435,0.00011093219,33.270450592041016,45.94764709472656,3,6,3,6
77,105,52,256,4,159,2539,649984,7149824,948504,10296,7.184112460993123,1.459272843639228,0.010854988487133423,7.538000894039456,86.73388323964338,21.21044158935547,8.69917106628418,0.007567557971924543,1.6983601679094136,38.981483,1.1244127,0.00012643039,33.20293045043945,46.325531005859375,3,6,2,7
78,105,64,256,4,159,2539,649984,7149824,1210936,10296,7.452097282394644,1.863024320598661,0.008502513757952525,5.904378100907067,83.0634152672849,22.8065185546875,7.238925457000732,0.005240203347057104,1.5805052178911865,38.641605,1.1692828,0.00013672223,33.15840530395508,46.2042121887207,2,5,3,6
79,105,77,256,4,159,2539,649984,7149824,1481816,10296,7.57950517383365,2.2797730405671524,0.006948231089420009,4.82504170558288,79.27479054029861,22.287277221679688,7.6848626136779785,0.005905711557716131,1.5801676400005817,38.10285,1.2441062,0.00015478002,33.59602355957031,46.32119369506836,2,5,3,8
80,105,90,256,4,159,2539,649984,7149824,1703000,10296,7.4526278937464445,2.620064493895234,0.0060458015267175575,4.198369935408103,76.18123187367969,25.571475982666016,5.265336990356445,0.0027723778039216995,1.565693147014827,38.63959,1.1695542,0.0001367857,33.413551330566406,46.681087493896484,2,5,3,7
81,105,103,256,4,159,2539,649984,7149824,1925688,10296,7.363528948404884,2.9626698503347773,0.005346660518214788,3.7128672972984202,73.0666377242293,26.7985897064209,4.5716233253479,0.0020899740047752857,1.5847964901477098,38.24805,1.2234818,0.00014969075,33.372276306152344,46.69338607788086,2,5,3,7
82,105,116,256,4,159,2539,649984,7149824,2161016,10296,7.337317162608141,3.3247218393068136,0.004764425622022234,3.308547461009081,69.77525600630169,27.69219207763672,4.124680519104004,0.001701299101114273,1.549138352973387,37.78802,1.2900275,0.0001664171,33.4215087890625,46.89514923095703,2,4,3,7
83,105,128,256,4,159,2539,649984,7149824,2418520,10296,7.441783182355258,3.720891591177629,0.004257149000215008,2.9562807005937515,66.1737128074761,27.297101974487305,4.316629886627197,0.001863329322077334,1.5573034901171918,37.266907,1.3697913,0.00018763283,27.40043830871582,46.80617141723633,2,4,3,8
84,105,141,256,4,159,2539,649984,7149824,2724472,10296,7.610278241000673,4.191598562426152,0.0037790808641087153,2.6242971115137173,61.894558523398615,28.554597854614258,3.7348241806030273,0.001394891063682735,1.6795004028826954,37.052242,1.4040674,0.00019714053,33.04268264770508,46.70417404174805,2,4,3,7
85,105,154,256,4,159,2539,649984,7149824,3031352,10296,7.752699447067308,4.663733261126428,0.0033965042660832525,2.3586254582113857,57.60242489885066,29.76992416381836,3.2471601963043213,0.00105440488550812,1.5647988871205598,37.649536,1.3107598,0.00017180914,33.18853759765625,46.7250862121582,2,4,3,8
86,105,167,256,4,159,2539,649984,7149824,3289016,10296,7.756875378820933,5.060149172902718,0.003130419554055073,2.173848956648432,53.99864388270257,30.231000900268555,3.079285144805908,0.0009481997112743556,1.5869248970411718,38.21962,1.227493,0.0001506739,30.38304901123047,45.843910217285156,2,4,3,8
87,105,180,256,4,159,2539,649984,7149824,3532376,10296,7.7291497089842895,5.434558389129578,0.0029147519969561562,2.024083506399092,50.59492373518565,29.859874725341797,3.2137062549591064,0.001032790751196444,1.5666291099041705,37.709103,1.3018016,0.00016946874,33.39606475830078,45.11362838745117,1,4,3,7
88,105,192,256,4,159,2539,649984,7149824,3742104,10296,7.676299724300906,5.75722479322568,0.002751393333803657,1.910642782776748,47.66159278885746,30.499820709228516,2.9854443073272705,0.000891287752892822,1.5655451479833573,38.791904,1.149224,0.00013207158,33.178707122802734,46.38571548461914,1,4,3,8
89,105,205,256,4,159,2539,649984,7149824,3975448,10296,7.637821688969154,6.11622439936983,0.002589896786475386,1.7984951633124115,44.39796000572881,30.610525131225586,2.947634696960449,0.0008688550442457199,1.5713548429775988,37.88975,1.2750065,0.00016256417,33.16836929321289,45.43745422363281,1,4,3,7
90,106,26,256,4,159,2539,649984,7149824,506360,10296,7.670494137607174,0.7790345608507286,0.020333359665060433,14.120041077494273,92.91786762862974,16.298921585083008,15.312772750854492,0.023448104038834572,1.5667444919236002,39.429596,1.0678744,0.000114035574,33.38737869262695,46.26795196533203,3,5,2,4
91,106,39,256,4,159,2539,649984,7149824,759256,10296,7.667626059118772,1.1681149074438755,0.01356064357739682,9.41688178954134,89.38077356869204,15.381558418273926,17.018529891967773,0.028963034972548485,1.6629250249825416,39.44769,1.0656523,0.00011356147,33.26877212524414,46.14209747314453,3,4,3,5
92,106,52,256,4,159,2539,649984,7149824,1007704,10296,7.632502196503772,1.5503520086648286,0.010217286028436922,7.095162865285838,85.90589083031973,19.839466094970703,10.186537742614746,0.01037655584514141,1.5653311139903963,38.47904,1.1913737,0.00014193714,33.372222900390625,46.468589782714844,3,4,2,4
93,106,64,256,4,159,2539,649984,7149824,1250392,10296,7.694909413154785,1.9237273532886963,0.008234217749313814,5.718066014497854,82.51156951555731,21.69442367553711,8.227704048156738,0.006769512314349413,1.5623947679996486,38.998077,1.1222663,0.00012594817,33.37815475463867,46.38815689086914,3,4,3,5
94,106,77,256,4,159,2539,649984,7149824,1516760,10296,7.7582441190160765,2.333534363922804,0.0067881536960362875,4.713879585432105,78.78605123706542,20.490386962890625,9.451061248779297,0.008932257071137428,1.562246110988781,37.9302,1.2690828,0.00016105713,32.883384704589844,46.70241165161133,2,4,3,5
95,106,90,256,4,159,2539,649984,7149824,1757176,10296,7.689711609995186,2.7034142378889325,0.005859401676326105,4.068928781180713,75.42350692828244,23.686038970947266,6.541811466217041,0.004279530607163906,1.5623278529383242,38.395306,1.2029145,0.00014470033,33.495059967041016,46.217185974121094,2,3,3,6
96,106,103,256,4,159,2539,649984,7149824,1992792,10296,7.620124121950007,3.065909314690823,0.00516662050028302,3.5878425846751694,72.12809713917433,25.16845703125,5.515399932861328,0.0030419637914747,1.573971940902993,37.643185,1.3117186,0.00017206058,33.070709228515625,46.805580139160156,2,3,3,6
97,106,116,256,4,159,2539,649984,7149824,2265592,10296,7.692385000882781,3.4856119535250096,0.004544507572413745,3.155830352508307,68.31261860431809,26.5253963470459,4.717698097229004,0.002225667703896761,1.5647560798097406,37.73823,1.2974434,0.00016833593,33.423274993896484,46.9488410949707,2,3,3,6
98,106,128,256,4,159,2539,649984,7149824,2520856,10296,7.756670933438362,3.878335466719181,0.004084326911176204,2.8362683152072155,64.74240484800745,25.895315170288086,5.072640895843506,0.0025731688365340233,1.5634910829830915,37.371017,1.3534714,0.0001831885,33.28449630737305,47.04841995239258,2,3,3,6
99,106,141,256,4,159,2539,649984,7149824,2796056,10296,7.810234106799181,4.301730504135486,0.0036823296815228306,2.5571104441398886,60.89335905331376,27.977392196655273,3.9914469718933105,0.0015931649832054973,1.6578863868489861,37.652126,1.3103694,0.0001717068,33.13779067993164,46.49131774902344,2,3,3,7
100,106,154,256,4,159,2539,649984,7149824,3067480,10296,7.845097006184048,4.719316167782591,0.003356501101881675,2.3308461668861735,57.09712574743099,28.500640869140625,3.758096218109131,0.0014123287983238697,1.5885583010967823,38.22025,1.227404,0.00015065205,33.450157165527344,46.74505615234375,2,3,3,6
101,106,167,256,4,159,2539,649984,7149824,3340824,10296,7.879060311830062,5.139855750295392,0.0030818744118217543,2.1401378821512296,53.27403863367825,29.233152389526367,3.4541587829589844,0.0011931213084608316,1.5767394979484375,37.784035,1.2906194,0.00016656984,33.23482894897461,46.15315628051758,2,3,3,7
102,106,180,256,4,159,2539,649984,7149824,3578360,10296,7.829766749814013,5.505304745962977,0.0028772957444192313,1.9980728601929376,49.951775036700205,29.85970687866211,3.213768482208252,0.0010328307980671525,1.567772678099573,38.333714,1.2114747,0.00014676708,33.319217681884766,46.101749420166016,2,3,3,7
103,106,192,256,4,159,2539,649984,7149824,3790648,10296,7.775879611395562,5.831909708546672,0.0027161582927246212,1.8861746065580345,46.98263901321207,29.950790405273438,3.1802430152893066,0.0010113947791978717,1.5639303708449006,37.92917,1.2692336,0.0001610954,33.60370635986328,47.79103469848633,1,2,3,6
104,106,205,256,4,159,2539,649984,7149824,4024312,10296,7.731701553329042,6.191401634501772,0.002558449742465296,1.7766574758617124,43.71453059543843,30.62087631225586,2.9441239833831787,0.0008667866350151598,1.576789362123236,37.77762,1.2915732,0.00016681613,33.59092712402344,48.432769775390625,1,2,3,7
105,107,26,256,4,159,2539,649984,7149824,537496,10296,8.142151664798376,0.8269372784560851,0.019155491389703364,13.302097131885633,92.48238837767195,15.637084007263184,16.525163650512695,0.02730809897184372,1.5667602929752324,40.069157,0.9920691,9.842012e-05,33.385597229003906,46.088497161865234,4,6,3,4
106,107,39,256,4,159,2539,649984,7149824,800120,10296,8.08030619767524,1.2309841473020875,0.01286806978953157,8.935939609058641,88.80923502452647,15.133527755737305,17.51150894165039,0.03066529892385006,1.6741870748810475,38.461296,1.1938095,0.00014251811,33.43395233154297,46.371219635009766,4,6,3,5
107,107,52,256,4,159,2539,649984,7149824,1075704,10296,8.147544460266005,1.654969968491532,0.009571406260458267,6.6466462893137885,84.9548184682588,20.398042678833008,9.552077293395996,0.009124218486249447,1.5866420629899953,39.062866,1.1139268,0.00012408328,33.71553421020508,45.74028778076172,4,5,3,5
108,107,64,256,4,159,2539,649984,7149824,1312856,10296,8.079312721543914,2.0198281803859786,0.007842444258928626,5.4460077876019914,81.63792563285475,22.451065063476562,7.5413079261779785,0.005687132477760315,1.5787739891093224,38.55399,1.1811378,0.00013950864,33.20341873168945,46.030120849609375,3,5,3,5
109,107,77,256,4,159,2539,649984,7149824,1563352,10296,7.996562712592645,2.4052161283970066,0.006585848868329077,4.573393579948726,78.13439883275448,21.555049896240234,8.360793113708496,0.006990286521613598,1.583593907067552,38.046116,1.2522585,0.00015681516,33.34669494628906,46.45403289794922,3,5,3,7
110,107,90,256,4,159,2539,649984,7149824,1843320,10296,8.06669292372325,2.8359467309964552,0.005585573855868759,3.8787752533472215,74.2186660818504,25.52448844909668,5.2938971519470215,0.0028025347273796797,1.5601468309760098,38.752056,1.1545084,0.00013328895,33.32041549682617,46.58742904663086,3,4,3,5
111,107,103,256,4,159,2539,649984,7149824,2137688,10296,8.174183705074622,3.2888317250886177,0.00481641848576593,3.344652727619746,70.10152977192166,26.985506057739258,4.474295139312744,0.0020019318908452988,1.5613487651571631,38.738934,1.156254,0.00013369235,33.22751998901367,46.493682861328125,3,4,3,5
112,107,116,256,4,159,2539,649984,7149824,2420376,10296,8.2179245154894,3.7237470460811344,0.00425388452042162,2.954013756540306,66.14775412653515,28.379053115844727,3.8110737800598145,0.001452428288757801,1.56398947793059,38.667576,1.1657921,0.00013590713,33.514869689941406,46.412193298339844,3,4,3,6
113,107,128,256,4,159,2539,649984,7149824,2673592,10296,8.226639424970461,4.1133197124852305,0.003850998955712016,2.674239001313589,62.60618443195245,28.12710952758789,3.9232358932495117,0.0015391780762001872,1.5519741789903492,39.244026,1.0909343,0.00011901376,33.46046447753906,46.27732467651367,3,4,3,5
114,107,141,256,4,159,2539,649984,7149824,2942392,10296,8.218995025125768,4.526868353682552,0.003499193853164364,2.4299359160846006,58.846651330158615,29.872112274169922,3.209181547164917,0.0010298846755176783,1.6815998828969896,38.692177,1.1624947,0.00013513937,33.6239128112793,45.9068603515625,3,4,3,6
115,107,154,256,4,159,2539,649984,7149824,3180920,10296,8.135220431400029,4.89384354076408,0.0032367994165210063,2.2477220426794764,55.510513265781086,30.750892639160156,2.9003827571868896,0.0008412220049649477,1.5681635260116313,38.485863,1.190438,0.00014171428,33.5522575378418,46.0325813293457,3,4,3,5
116,107,167,256,4,159,2539,649984,7149824,3438904,10296,8.110373974382862,5.290751772351319,0.0029939771508596925,2.0790996201115237,51.902256614988005,31.4570255279541,2.673921823501587,0.0007149858283810318,1.5518155398312958,38.088562,1.2461545,0.00015529011,33.65530776977539,46.21329879760742,3,4,3,6
117,107,180,256,4,159,2539,649984,7149824,3668376,10296,8.026729683602468,5.643794308782986,0.00280669157142016,1.949043391408078,48.69277901106377,32.05124282836914,2.497110366821289,0.000623556028585881,1.5594220729544754,39.139732,1.1041124,0.00012190643,33.1785774230957,45.42911148071289,2,4,3,5
118,107,192,256,4,159,2539,649984,7149824,3886616,10296,7.9727418931337795,5.979556419850335,0.0026490911373801785,1.8396013395714936,45.64039618317877,31.78797149658203,2.573957681655884,0.0006625257665291429,1.565611151047051,38.012375,1.2571329,0.0001580383,33.23741912841797,46.82255935668945,2,4,3,6
119,107,205,256,4,159,2539,649984,7149824,4127064,10296,7.929113632215487,6.349485525797558,0.002494751716959078,1.7324238247819757,42.27740431093129,32.458518981933594,2.3827247619628906,0.0005677377339452505,1.548602662049234,38.08121,1.2472095,0.00015555315,33.15193557739258,46.715118408203125,2,3,3,5
120,108,26,256,4,159,2539,649984,7149824,489976,10296,7.42230435968128,0.7538277865301299,0.021013274119548713,14.592192270641828,93.14702012245337,17.06943130493164,14.012911796569824,0.01963616907596588,1.560911662178114,39.01907,1.1195576,0.00012534094,33.342044830322266,47.255428314208984,4,6,2,6
121,108,39,256,4,159,2539,649984,7149824,743608,10296,7.509598973955019,1.14404046868846,0.013846004884293875,9.615044485804349,89.59963210283219,16.633167266845703,14.734708786010742,0.021711165085434914,1.6615440680179745,40.059868,0.9931308,9.863089e-05,33.25706100463867,46.32162094116211,3,6,2,7
122,108,52,256,4,159,2539,649984,7149824,977144,10296,7.401036143848275,1.5033354667191807,0.010536829781485636,7.317062787061068,86.33331393891653,20.385135650634766,9.566283226013184,0.009151377715170383,1.5614367919042706,39.81272,1.0217954,0.000104406594,33.18889617919922,46.31386184692383,3,6,2,6
123,108,64,256,4,159,2539,649984,7149824,1222872,10296,7.525551398188263,1.8813878495470657,0.008419523874943576,5.846747656336886,82.89647409502668,22.106019973754883,7.846916675567627,0.006157409865409136,1.5753605079371484,40.11613,0.98671883,9.736142e-05,33.624542236328125,46.29972457885742,3,5,2,6
124,108,77,256,4,159,2539,649984,7149824,1488024,10296,7.611259162263495,2.289324044899567,0.00691924323801229,4.804911748735235,79.18796322818575,21.88542366027832,8.04875659942627,0.006478248164057732,1.550764541840181,37.334282,1.3592077,0.00018474458,33.26637268066406,46.369441986083984,3,5,3,8
125,108,90,256,4,159,2539,649984,7149824,1714680,10296,7.503741630563214,2.63803416699488,0.006004618937644342,4.169771619194252,76.01787120913745,24.406429290771484,6.021137714385986,0.0036254096776247025,1.5777399770449843,38.34016,1.2105751,0.00014654921,33.775360107421875,45.38421630859375,2,5,3,7
126,108,103,256,4,159,2539,649984,7149824,1943512,10296,7.431685129456211,2.9900920638046475,0.0052976261530672305,3.6788164930291143,72.8173448745032,25.85790252685547,5.094537734985352,0.0025954318698495626,1.6009388619568203,37.782467,1.2908527,0.00016663005,33.141788482666016,46.37321853637695,2,5,3,8
127,108,116,256,4,159,2539,649984,7149824,2184888,10296,7.418369980035583,3.3614488972036236,0.004712369695837956,3.272398402114891,69.44137366178524,27.00737762451172,4.463042259216309,0.00199187477119267,1.551388927968219,38.183067,1.2326692,0.00015194734,33.32865524291992,46.334896087646484,2,5,3,8
128,108,128,256,4,159,2539,649984,7149824,2432664,10296,7.485304253643166,3.742652126821583,0.004232397075798384,2.9390922873031378,65.97588975616742,26.962533950805664,4.486144542694092,0.0020125494338572025,1.5693899758625776,38.537613,1.1833665,0.00014003564,32.98854064941406,46.311065673828125,2,4,3,8
129,108,141,256,4,159,2539,649984,7149824,2721720,10296,7.602591068690136,4.187364612051989,0.003782901988448481,2.6269506047646343,61.93304898134556,28.474332809448242,3.7694969177246094,0.0014209108194336295,1.7059878238942474,37.112545,1.394353,0.00019442204,25.80721092224121,46.98601531982422,2,4,3,8
130,108,154,256,4,159,2539,649984,7149824,2995704,10296,7.6615294905960525,4.608888834186688,0.0034369216718340666,2.38669241019807,58.10101059830284,29.086889266967773,3.5128164291381836,0.0012339879758656025,1.5684386789798737,38.509033,1.1872666,0.00014096018,33.359657287597656,46.58036422729492,2,4,3,8
131,108,167,256,4,159,2539,649984,7149824,3242744,10296,7.647746649277263,4.988959728239465,0.003175088751995224,2.204868469419726,54.645820652368506,29.895301818847656,3.200624942779541,0.0010244001168757677,1.5627786328550428,37.762882,1.2937659,0.00016738303,33.246917724609375,46.95832824707031,2,4,3,7
132,108,180,256,4,159,2539,649984,7149824,3488952,10296,7.634134173559144,5.367750590783773,0.002951029420869075,2.04927554176727,51.20226735651115,30.406494140625,3.0176944732666016,0.0009106480865739286,1.5937403489369897,38.984394,1.124036,0.00012634568,33.6841926574707,46.90699005126953,2,4,3,8
133,108,192,256,4,159,2539,649984,7149824,3691576,10296,7.572649993435736,5.679487495076802,0.002789052697276177,1.9367944747717507,48.3682954993018,30.54210090637207,2.970946788787842,0.0008826524717733264,1.5694869339931756,37.092705,1.3975409,0.00019531207,33.512821197509766,46.417266845703125,2,4,3,8
134,108,205,256,4,159,2539,649984,7149824,3940440,10296,7.570562637489313,6.062364612051989,0.0026129061729147,1.8144735105724235,44.88759443589101,31.180648803710938,2.7603707313537598,0.0007619646494276822,1.5720180850476022,37.690323,1.3046188,0.00017020304,27.91720199584961,48.20293426513672,1,4,3,8
135,109,26,256,4,159,2539,649984,7149824,466200,10296,7.062138334292726,0.717248424576605,0.022084942084942084,15.336387816387816,93.47955977657632,17.670879364013672,13.075430870056152,0.017096690833568573,1.5491470179986209,39.546997,1.0535374,0.00011099409,33.515296936035156,46.3212776184082,4,6,2,4
136,109,39,256,4,159,2539,649984,7149824,728056,10296,7.3525413801112895,1.1201137258763292,0.014141769314448339,9.820431395387168,89.81714794657883,17.183582305908203,13.829957008361816,0.01912677101790905,1.6580860519316052,38.548134,1.1819335,0.0001396967,33.526329040527344,46.72758483886719,3,6,2,5
137,109,52,256,4,159,2539,649984,7149824,953560,10296,7.222407368134032,1.4670514966522252,0.010797432778220564,7.498032635597131,86.6631682122525,23.30374526977539,6.836166858673096,0.004673318471759558,1.5783101338893173,38.634296,1.1702676,0.00013695261,32.994747161865234,46.14059829711914,3,5,3,5
138,109,64,256,4,159,2539,649984,7149824,1219096,10296,7.502313903111461,1.8755784757778653,0.008445602315158117,5.864857238478348,82.94928658383759,25.66631507873535,5.20815896987915,0.0027124916668981314,1.559835028834641,38.14319,1.238342,0.00015334909,33.410152435302734,46.12508773803711,3,5,3,4
139,109,77,256,4,159,2539,649984,7149824,1503960,10296,7.692771977923613,2.3138415714848364,0.0068459267533711,4.753998776563207,78.96507662286513,24.88405990600586,5.698977947235107,0.0032478347420692444,1.5585012719966471,38.24151,1.224403,0.00014991628,33.63931655883789,46.16496658325195,3,5,3,5
140,109,90,256,4,159,2539,649984,7149824,1742456,10296,7.6252942978425455,2.68076752658527,0.00590890099950874,4.103302465026377,75.6293861219521,28.494319915771484,3.760831832885742,0.001414385624229908,1.5528055829927325,38.53914,1.1831586,0.00013998643,33.592872619628906,46.460269927978516,3,4,3,5
141,109,103,256,4,159,2539,649984,7149824,1967576,10296,7.52370209202461,3.027114513588027,0.005232834716422644,3.6338235473496323,72.48077714919975,30.075712203979492,3.1348326206207275,0.0009827174944803119,1.5718101910315456,38.123657,1.2411294,0.00015404023,33.09558868408203,45.657981872558594,2,4,3,5
142,109,116,256,4,159,2539,649984,7149824,2188312,10296,7.429995518192066,3.3667167191807796,0.0047049963624931,3.267278157776405,69.39348437108382,30.70806312561035,2.914719343185425,0.0008495589136146009,1.5707118560094382,37.949352,1.2662874,0.0001603484,33.00194549560547,46.9356689453125,2,4,3,5
143,109,128,256,4,159,2539,649984,7149824,2434392,10296,7.490621307601418,3.745310653800709,0.004229392801159386,2.9370060368256223,65.95172132908446,30.82977294921875,2.874162435531616,0.0008260810282081366,1.664092363091186,38.237286,1.2249988,0.00015006222,33.13984680175781,46.937294006347656,2,4,3,5
144,109,141,256,4,159,2539,649984,7149824,2711768,10296,7.574792108357845,4.172053465931469,0.0037967849757058864,2.6365913308218105,62.07224121880483,32.1900520324707,2.4575212001800537,0.0006039410945959389,1.5643983548507092,37.27245,1.3689176,0.00018739355,32.9284782409668,47.017669677734375,2,4,3,5
145,109,154,256,4,159,2539,649984,7149824,3044472,10296,7.786253919377196,4.683918373375344,0.003381867200618038,2.348461079622345,57.418923878405955,32.536258697509766,2.361494779586792,0.0005576657131314278,1.5638938250485808,37.70981,1.301696,0.00016944123,33.57914733886719,47.061832427978516,2,4,3,6
146,109,167,256,4,159,2539,649984,7149824,3356504,10296,7.916040310084832,5.163979421031902,0.003067477351434707,2.13014016965271,53.054732536073615,33.60479736328125,2.088141918182373,0.00043603373342193663,1.5840755950193852,38.84172,1.1426519,0.00013056536,33.1395263671875,46.755619049072266,2,4,3,5
147,109,180,256,4,159,2539,649984,7149824,3609976,10296,7.898945341560545,5.5539459432847575,0.002852096523633398,1.9805738320697976,49.50958233377493,34.1491584777832,1.9612904787063599,0.0003846660547424108,1.5751674519851808,38.217346,1.2278142,0.00015075279,33.265625,46.8055419921875,2,4,3,5
148,109,192,256,4,159,2539,649984,7149824,3836280,10296,7.869486018117369,5.902114513588026,0.0026838499796678033,1.863738830325211,46.34441351283612,34.1528434753418,1.9604591131210327,0.00038434003363363445,1.5549691959749907,38.07808,1.2476592,0.00015566536,33.22029113769531,46.395965576171875,2,3,3,5
149,109,205,256,4,159,2539,649984,7149824,4085976,10296,7.850173392635856,6.286271662071682,0.00251983858936029,1.7498448351140585,42.85207579934835,34.762107849121094,1.8276561498641968,0.0003340326948091388,1.5698789879679675,38.98795,1.1235759,0.00012624227,33.52008819580078,46.752830505371094,2,3,3,5
150,111,26,256,4,159,2539,649984,7149824,508536,10296,7.703456842487957,0.7823823355651831,0.020246354240407757,14.05962213097991,92.88743331304379,15.07381534576416,17.63231086730957,0.031089838594198227,1.5457545858807857,40.809124,0.911053,8.300177e-05,33.509246826171875,46.75449752807617,3,6,2,6
151,111,39,256,4,159,2539,649984,7149824,761752,10296,7.692832833439372,1.1719550019692793,0.013516210000105021,9.386025898192587,89.3458636184611,15.728995323181152,16.35122299194336,0.026736248284578323,1.6857195780612528,40.024246,0.99721223,9.9443234e-05,33.27683639526367,46.48344421386719,2,6,2,6
152,111,52,256,4,159,2539,649984,7149824,1013016,10296,7.672736086284727,1.5585245175265852,0.010163709161553224,7.057957623571592,85.83159529521286,20.002059936523438,9.997628211975098,0.009995256550610065,1.589314011158422,39.985588,1.0016601,0.00010033228,33.934478759765625,46.432090759277344,2,6,2,6
153,111,64,256,4,159,2539,649984,7149824,1241304,10296,7.638981882630957,1.9097454706577393,0.008294503199860791,5.759929880190509,82.6386775394751,22.438602447509766,7.55213737487793,0.005703478120267391,1.5611162499990314,38.958954,1.1273332,0.000127088,33.39932632446289,47.11219787597656,2,5,3,6
154,111,77,256,4,159,2539,649984,7149824,1503000,10296,7.6878615673416775,2.312364612051989,0.0068502994011976044,4.757035262807718,78.9785035268001,23.212806701660156,6.908116340637207,0.004772207234054804,1.54996634204872,38.194572,1.2310375,0.00015154535,33.37318801879883,47.00885772705078,2,5,3,8
155,111,90,256,4,159,2539,649984,7149824,1752760,10296,7.670386416349394,2.696620224497834,0.005874164175357722,4.079180264268924,75.48527068638333,25.807844161987305,5.123983860015869,0.0026255210395902395,1.5554545819759373,38.125935,1.2408044,0.00015395955,33.27006912231445,46.65362548828125,1,5,3,7
156,111,103,256,4,159,2539,649984,7149824,2009720,10296,7.684854139501447,3.0919530326900353,0.005123101725613519,3.5576219572875822,71.89133606645423,27.889516830444336,4.032033920288086,0.001625729724764824,1.5666282530874014,37.665592,1.3083389,0.00017117507,33.618526458740234,45.93450927734375,1,5,3,8
157,111,116,256,4,159,2539,649984,7149824,2257272,10296,7.66413602966142,3.472811638440331,0.004561258014098434,3.1674623173458936,68.4289851050879,28.576040267944336,3.725614070892334,0.0013880201149731874,1.5557816410437222,38.04047,1.2530733,0.00015701927,33.35232162475586,46.51026916503906,1,4,3,8
158,111,128,256,4,159,2539,649984,7149824,2496184,10296,7.680755218589996,3.840377609294998,0.0041246959358765215,2.8643016700691937,65.08747627913638,28.884984970092773,3.595428466796875,0.0012927105417475104,1.649772621924058,38.384155,1.2044593,0.00014507222,33.58687210083008,46.56307601928711,1,4,3,8
159,111,141,256,4,159,2539,649984,7149824,2746040,10296,7.670524219341395,4.224780917684128,0.0037493991347540456,2.6036853068418524,61.592900748326116,29.85345458984375,3.2160818576812744,0.001034318353049457,1.5637480949517335,37.0686,1.401425,0.0001963992,26.61707305908203,46.39377975463867,1,4,3,8
160,111,154,256,4,159,2539,649984,7149824,2996664,10296,7.663984695887019,4.610365793619535,0.0034358206325433883,2.385927818400728,58.08758369436786,30.346227645874023,3.0387051105499268,0.0009233728633262217,1.5995431279297918,38.475067,1.1919188,0.00014206705,33.69561767578125,46.49813461303711,1,4,3,8
161,111,167,256,4,159,2539,649984,7149824,3247416,10296,7.6587651793695,4.996147597479323,0.0031705208079285192,2.201696364124584,54.58047638655162,30.593183517456055,2.953526020050049,0.0008723315550014377,1.5704114739783104,37.690784,1.3045498,0.00017018503,33.421226501464844,48.04362869262695,1,4,3,7
162,111,180,256,4,159,2539,649984,7149824,3497560,10296,7.652969235482036,5.380993993698306,0.002943766511510882,2.044231978865266,51.08187278456085,31.360118865966797,2.70392107963562,0.0007311189547181129,1.5619888498913497,38.576805,1.1780391,0.0001387776,33.24566650390625,48.34016418457031,1,4,3,8
163,111,192,256,4,159,2539,649984,7149824,3718872,10296,7.628643166601024,5.721482374950768,0.002768581440823992,1.922578674393741,47.98652386408393,31.662782669067383,2.6113243103027344,0.0006819014088250697,1.5576960511971265,37.259377,1.3709798,0.00018795858,33.2404899597168,45.688209533691406,1,4,4,8
164,111,205,256,4,159,2539,649984,7149824,3991032,10296,7.667762418467036,6.140200374163056,0.002579783875448756,1.7914724813030816,44.17999659851767,31.987285614013672,2.515565872192383,0.0006328070885501802,1.5648047418799256,37.525917,1.3295479,0.00017676977,32.47987365722656,48.286956787109375,1,4,3,8
165,112,26,256,4,159,2539,649984,7149824,418296,10296,6.336474081255491,0.6435481488775109,0.02461414883240576,17.092738156711995,94.14956228293173,24.312698364257812,6.08646297454834,0.0037045034114271402,1.58888922794722,37.587116,1.3202137,0.00017429641,33.9613151550293,46.42426681518555,6,6,2,4
166,112,39,256,4,159,2539,649984,7149824,606744,10296,6.127427515375526,0.9334752855454903,0.016969265456271507,11.783922049496987,91.51386104049554,22.83591651916504,7.214465141296387,0.0052048503421247005,1.6758149128872901,37.65105,1.3105307,0.00017174908,32.69157791137695,43.08479309082031,5,6,2,3
167,112,52,256,4,159,2539,649984,7149824,870968,10296,6.596843093889175,1.3399837534462387,0.011821329830717087,8.209054752872666,87.8183295141251,27.838146209716797,4.05595064163208,0.0016450737603008747,1.5807249010540543,36.030914,1.5792623,0.00024940696,33.161163330078125,46.066471099853516,5,6,2,3
168,112,64,256,4,159,2539,649984,7149824,1039896,10296,6.39951752658527,1.5998793816463175,0.009900990099009901,6.875518321062875,85.45564198503348,29.700132369995117,3.2733566761016846,0.0010714865056797862,1.556918886024505,36.81529,1.4428976,0.00020819531,33.484580993652344,44.93995666503906,5,5,2,4
169,112,77,256,4,159,2539,649984,7149824,1298712,10296,6.642926195505951,1.9980676447420245,0.007927854674477482,5.505319116170483,81.83574868416342,30.087188720703125,3.130692958831787,0.0009801238775253296,1.558941642986611,39.524597,1.0562584,0.0001115682,34.2627067565918,43.9913215637207,4,5,3,4
170,112,90,256,4,159,2539,649984,7149824,1492248,10296,6.530340028882763,2.295822666404096,0.006899657429596153,4.79131082769084,79.12888485087186,30.550893783569336,2.96794056892395,0.0008808671263977885,1.5578924820292746,37.705994,1.3022678,0.00016959014,33.494110107421875,46.218109130859375,4,5,2,4
171,112,103,256,4,159,2539,649984,7149824,1811736,10296,6.927794369008516,2.78735476565577,0.005682947184357986,3.9463939558522876,74.66041122131118,33.9957160949707,1.996246337890625,0.00039849994936957955,1.547523738117889,41.676605,0.8244602,6.797346e-05,34.2873649597168,46.263946533203125,4,5,3,4
172,112,116,256,4,159,2539,649984,7149824,2055992,10296,6.98072822588312,3.1631424773532886,0.005007801586776602,3.477554387371157,71.24415929678828,35.242156982421875,1.7293860912322998,0.00029907768475823104,1.5594686949625611,37.30448,1.3638788,0.00018601656,33.863563537597656,45.42085647583008,4,5,3,5
173,112,128,256,4,159,2539,649984,7149824,2304152,10296,7.089872981488775,3.5449364907443877,0.004468455206080154,3.1030175092615417,67.77330462959648,35.45613479614258,1.6873035430908203,0.00028469934477470815,1.6652781690936533,39.221703,1.093742,0.00011962715,33.5590934753418,45.07279968261719,4,5,3,4
174,112,141,256,4,159,2539,649984,7149824,2473272,10296,6.908600303352802,3.805127510831036,0.004162906465605077,2.8908361069870194,65.40793171971785,36.09149932861328,1.5682846307754517,0.00024595166905783117,1.5605610189959411,39.451805,1.0651473,0.00011345387,33.85240173339844,43.50621795654297,4,4,3,4
175,112,154,256,4,159,2539,649984,7149824,2735576,10296,6.996250696920252,4.2086820598660895,0.0037637411645664387,2.613644804604222,61.739254001217375,36.286067962646484,1.5335451364517212,0.00023517609224654734,1.5822807799559082,38.458496,1.1941948,0.00014261012,33.60700225830078,44.06214141845703,3,4,3,5
176,112,167,256,4,159,2539,649984,7149824,2864632,10296,6.75600040564794,4.407234639621898,0.003594178938167276,2.495896156993289,59.93423054889183,36.44129943847656,1.506381630897522,0.00022691853519063443,1.5595602549146859,36.833866,1.4398144,0.00020730657,33.35715866088867,43.109127044677734,3,4,3,5
177,112,180,256,4,159,2539,649984,7149824,3098680,10296,6.7801846746313075,4.7673173493501375,0.0033227051518711194,2.3073773348651683,56.6607513695442,36.80188751220703,1.4451254606246948,0.00020883877004962415,1.5572234869468957,39.82257,1.0206373,0.000104170045,33.98000717163086,42.76465606689453,3,4,3,4
178,112,192,256,4,159,2539,649984,7149824,3304728,10296,6.779096100827097,5.084322075620323,0.003115536286193599,2.163513608381688,53.778890221633425,37.26342010498047,1.370341420173645,0.0001877835748018697,1.582018403103575,37.553574,1.3253219,0.00017564785,33.246673583984375,46.18983840942383,3,4,3,5
179,112,205,256,4,159,2539,649984,7149824,3610520,10296,6.936704483232308,5.5547828869633715,0.0028516667959185933,1.9802754173914008,49.50197375487844,37.67377471923828,1.3071073293685913,0.0001708529598545283,1.579219333129004,37.748146,1.2959628,0.00016795198,33.75392150878906,44.12517166137695,3,4,3,5
180,113,26,256,4,159,2539,649984,7149824,526584,10296,7.976853394734451,0.8101491729027176,0.019552436078574358,13.577746380444525,92.6350075190662,17.12139892578125,13.929322242736816,0.019402602687478065,1.5810295208357275,41.160465,0.8749366,7.655141e-05,33.501136779785156,46.19790267944336,3,6,2,5
181,113,39,256,4,159,2539,649984,7149824,785272,10296,7.930358206845012,1.2081405080740448,0.013111380515286424,9.10490123167514,89.01690447205414,14.061919212341309,19.810890197753906,0.03924713656306267,1.6787327639758587,39.939682,1.0069684,0.000101398546,33.286346435546875,46.45328903198242,3,5,3,5
182,113,52,256,4,159,2539,649984,7149824,1045208,10296,7.916563153270518,1.608051890508074,0.00985067087125242,6.840575273055698,85.3813464499266,20.396743774414062,9.553505897521973,0.00912694726139307,1.5678996320348233,39.23194,1.0924536,0.000119345495,33.32939910888672,46.454593658447266,3,5,3,5
183,113,64,256,4,159,2539,649984,7149824,1290072,10296,7.939100039385585,1.9847750098463963,0.007980949900470671,5.542189893277275,81.95659081957821,22.54510498046875,7.460100173950195,0.005565309431403875,1.549471524078399,38.65967,1.1668535,0.00013615472,33.07577133178711,46.359561920166016,2,4,3,4
184,113,77,256,4,159,2539,649984,7149824,1547416,10296,7.915049896932528,2.380698601811737,0.0066536729618926005,4.62049248553718,78.35728543807512,20.068504333496094,9.921441078186035,0.009843500331044197,1.5721882269717748,37.505077,1.3327421,0.00017762015,33.240516662597656,47.1109733581543,2,4,3,5
185,113,90,256,4,159,2539,649984,7149824,1807672,10296,7.910690998205768,2.781102304056715,0.005695723560468935,3.955266220863077,74.7172517813026,23.841997146606445,6.425398826599121,0.00412857485935092,1.5476253859233111,38.88091,1.1375078,0.0001293924,33.44845962524414,46.94867706298828,2,4,3,6
186,113,103,256,4,159,2539,649984,7149824,2065880,10296,7.899601173155092,3.178355159511619,0.0049838325556179446,3.46090963657134,71.10586218625801,25.32283592224121,5.418239593505859,0.002935732016339898,1.5566528609488162,38.30696,1.2152116,0.00014767393,33.27363967895508,47.00877380371094,2,4,3,5
187,113,116,256,4,159,2539,649984,7149824,2338168,10296,7.9388029498444945,3.5972700866482867,0.004403447485381718,3.057874370019605,67.29754466683376,26.574682235717773,4.691003799438477,0.0022005520295351744,1.5670047199819237,39.339878,1.0789617,0.00011641584,33.20220184326172,46.83553695678711,2,3,3,5
188,113,128,256,4,159,2539,649984,7149824,2589848,10296,7.9689592359196535,3.9844796179598267,0.00397552288782971,2.7607118255588743,63.77745801854703,25.897388458251953,5.0714311599731445,0.0025719418190419674,1.6769942929968233,38.52725,1.1847795,0.00014037025,33.25543212890625,47.14687728881836,2,3,3,6
189,113,141,256,4,159,2539,649984,7149824,2867384,10296,8.00947488680136,4.411468589996061,0.003590729389576004,2.493500696104882,59.8957400909449,27.537771224975586,4.198666095733643,0.001762879779562354,1.6060530790127814,38.46902,1.1927484,0.00014226488,33.1268196105957,46.835453033447266,2,3,3,6
190,113,154,256,4,159,2539,649984,7149824,3125432,10296,7.993309565582114,4.80847528554549,0.003294264600861577,2.287627438382918,56.286588313222815,28.25653839111328,3.8652091026306152,0.0014939842512831092,1.557572155026719,39.23985,1.0914588,0.00011912824,33.34123229980469,46.71751403808594,2,3,3,6
191,113,167,256,4,159,2539,649984,7149824,3381848,10296,7.975812062366012,5.202971150059079,0.0030444892851482384,2.1141766276899494,52.700262272190194,28.813257217407227,3.6252424716949463,0.0013142382958903909,1.5632852059789002,38.124176,1.2410553,0.0001540218,33.0855598449707,46.10049057006836,2,3,4,8
192,113,180,256,4,159,2539,649984,7149824,3642872,10296,7.970924686009365,5.604556419850335,0.0028263414141369778,1.962688779622232,49.049487092269686,29.467456817626953,3.3622279167175293,0.0011304577346891165,1.5717293538618828,38.621944,1.1719325,0.00013734258,33.40896224975586,46.76166915893555,2,3,3,6
193,113,192,256,4,159,2539,649984,7149824,3872696,10296,7.944187344098727,5.958140508074045,0.002658613017907938,1.8462135938374713,45.83508629023596,29.40350341796875,3.3870744705200195,0.0011472274782136083,1.5786847670096904,38.142456,1.2384461,0.00015337489,33.32292175292969,46.848873138427734,2,3,4,7
194,113,205,256,4,159,2539,649984,7149824,4109528,10296,7.895422626538199,6.322506400157542,0.0025053972134999446,1.7398163487388332,42.522669089476885,29.957643508911133,3.1777353286743164,0.0010098002385348082,1.5666399691253903,38.364174,1.207233,0.00014574114,33.44340896606445,48.17527770996094,1,3,3,6
195,114,26,256,4,159,2539,649984,7149824,491896,10296,7.451389099281971,0.7567817053958251,0.0209312537609576,14.535235090344301,93.12016631458341,12.085188865661621,24.873708724975586,0.061870139092206955,1.6720806399825965,39.907303,1.010729,0.000102157304,33.6774787902832,46.54766845703125,2,6,2,5
196,114,39,256,4,159,2539,649984,7149824,731608,10296,7.388412558952141,1.1255784757778653,0.014073110190156477,9.772752621622509,89.7674684020194,11.783432960510254,25.75303077697754,0.06632185727357864,1.5668922720942644,39.628773,1.0436654,0.00010892375,33.48356628417969,46.52143096923828,2,6,3,5
197,114,52,256,4,159,2539,649984,7149824,981688,10296,7.435453085709092,1.5103264080346592,0.010488057305376046,7.283193845702504,86.26975992695765,15.259129524230957,17.260107040405273,0.029791129752993584,1.5688310340046883,40.02842,0.99673337,9.934774e-05,33.500709533691406,46.420860290527344,2,5,2,5
198,114,64,256,4,159,2539,649984,7149824,1195416,10296,7.3565872390705005,1.8391468097676251,0.008612901282900681,5.981034217377047,83.28048354756704,17.705516815185547,13.023392677307129,0.016960876062512398,1.629888795083389,39.525368,1.0561647,0.00011154839,33.69443893432617,47.13547134399414,1,5,3,6
199,114,77,256,4,159,2539,649984,7149824,1451416,10296,7.424008838739048,2.233002658526979,0.007093762229436633,4.926102509549295,79.69997583157291,18.13024139404297,12.401890754699707,0.015380688942968845,1.5567354150116444,36.974148,1.4167477,0.0002007174,33.40224838256836,46.916481018066406,1,5,3,8
200,114,90,256,4,159,2539,649984,7149824,1687000,10296,7.382609076189226,2.5954485033477748,0.006103141671606402,4.238188500296384,76.40501360592933,21.310731887817383,8.599306106567383,0.007394806016236544,1.5602574569638819,38.11757,1.2420001,0.00015425641,33.571468353271484,46.81992721557617,1,4,3,6
201,114,103,256,4,159,2539,649984,7149824,1938168,10296,7.411250511439027,2.9818703229617958,0.005312232995282142,3.688959883766526,72.89208797307458,23.280508041381836,6.854480743408203,0.004698390606790781,1.569450940005481,37.219868,1.3772303,0.00018967634,33.160682678222656,46.89665222167969,1,4,3,7
202,114,116,256,4,159,2539,649984,7149824,2188056,10296,7.429126319077563,3.3663228633320204,0.004705546841579923,3.267660425510133,69.39706487879981,24.404905319213867,6.022193431854248,0.00362668139860034,1.5636335969902575,37.786404,1.2902673,0.00016647897,33.177223205566406,48.245643615722656,1,4,3,7
203,114,128,256,4,159,2539,649984,7149824,2429976,10296,7.47703328081922,3.73851664040961,0.004237078884729726,2.9423434634745362,66.01348508718536,24.749759674072266,5.787779331207275,0.003349839011207223,1.696273528970778,37.924362,1.2699358,0.0001612737,31.123046875,47.83966827392578,1,4,3,8
204,114,141,256,4,159,2539,649984,7149824,2653688,10296,7.4125570183156935,4.082697420244191,0.003879883392471157,2.6942971442008252,62.884568906870996,26.0385684967041,4.989666938781738,0.002489677397534251,1.5795870320871475,38.09977,1.2445476,0.00015488987,33.13665008544922,48.06462097167969,1,4,3,7
205,114,154,256,4,159,2539,649984,7149824,2901240,10296,7.41993728996486,4.463556025994486,0.0035488273979401913,2.4644028070755954,59.42221794550467,26.722274780273438,4.611966609954834,0.0021270238794386387,1.5634691880550236,38.11687,1.2420992,0.00015428102,33.32306671142578,47.68217086791992,1,4,3,7
206,114,167,256,4,159,2539,649984,7149824,3116568,10296,7.3501708674026505,4.794838026782197,0.003303633997397137,2.29413380359421,56.41056339288911,27.17464256286621,4.377920150756836,0.0019166184356436133,1.5612458100076765,37.206287,1.3793856,0.00019027045,33.242881774902344,47.64266586303711,1,4,3,6
207,114,180,256,4,159,2539,649984,7149824,3372600,10296,7.379545752921097,5.1887431075226464,0.0030528375733855184,2.119973907371168,52.82960811343048,27.758216857910156,4.093446731567383,0.001675630803219974,1.5721379939932376,38.24968,1.2232519,0.00014963455,33.62105941772461,48.22869873046875,1,4,3,8
208,114,192,256,4,159,2539,649984,7149824,3592984,10296,7.370405015097807,5.527803761323356,0.0028655847061940715,1.9899403949474865,49.74723853342404,27.929887771606445,4.013335704803467,0.0016106865368783474,1.5635559500660747,37.19353,1.381413,0.00019083018,33.217159271240234,47.010154724121094,1,3,3,8
209,114,205,256,4,159,2539,649984,7149824,3854776,10296,7.405980845157014,5.93057059866089,0.0026709723210894746,1.854796231998954,46.085721830355546,28.525238037109375,3.7474684715270996,0.0014043520204722881,1.5637296049389988,37.956043,1.2653123,0.00016010152,33.53937911987305,47.95072555541992,1,3,3,8
210,115,26,256,4,159,2539,649984,7149824,443416,10296,6.716999424364529,0.6821952540370224,0.023219730456275824,16.12441589838887,93.7982249632998,20.195011138916016,9.777984619140625,0.009560899809002876,1.6757957411464306,37.79586,1.2888632,0.00016611684,33.57865905761719,45.98536682128906,4,6,2,4
211,115,39,256,4,159,2539,649984,7149824,695256,10296,7.021298512436756,1.069650945254037,0.014808933687735166,10.283728583428262,90.27590049769057,16.782207489013672,14.484034538269043,0.02097872644662857,1.569379025837407,40.207226,0.9764242,9.534043e-05,33.24937438964844,46.39171600341797,4,6,2,4
212,115,52,256,4,159,2539,649984,7149824,904312,10296,6.849395582755173,1.3912834777471446,0.011385451039021931,7.906368598448323,87.35196838411687,24.33928108215332,6.067864418029785,0.003681897884234786,1.5783218648284674,38.771656,1.151906,0.00013268876,33.496559143066406,45.95235824584961,3,6,2,4
213,115,64,256,4,159,2539,649984,7149824,1147128,10296,7.0594230011815675,1.7648557502953919,0.00897545871079775,6.232804011409363,83.95585681549643,27.296127319335938,4.317114353179932,0.0018637478351593018,1.566810768097639,40.826683,0.90921295,8.2666826e-05,32.94247055053711,46.168052673339844,3,6,2,4
214,115,77,256,4,159,2539,649984,7149824,1424312,10296,7.285371579975755,2.1913031705395825,0.007228753250692264,5.019843966771325,80.0790620860038,25.36338996887207,5.39300012588501,0.002908445429056883,1.5801934080664068,38.380505,1.2049656,0.0001451942,33.97218322753906,45.77391052246094,3,5,3,5
215,115,90,256,4,159,2539,649984,7149824,1635416,10296,7.156868408384754,2.5160865498227647,0.006295645878479849,4.37186868662163,77.12648591070214,29.29726219177246,3.428757905960083,0.0011756382882595062,1.5677645830437543,40.071228,0.99183273,9.837322e-05,33.50761032104492,46.06175231933594,3,5,3,5
216,115,103,256,4,159,2539,649984,7149824,1836696,10296,7.023237495076802,2.825755710909807,0.0056057180937945095,3.8927639631163786,74.31131171900175,30.41532325744629,3.0146281719207764,0.0009087983635254204,1.5658848739694804,38.85148,1.1413687,0.00013027228,33.4276237487793,46.006343841552734,3,5,3,5
217,115,116,256,4,159,2539,649984,7149824,2066264,10296,7.015604840352569,3.178945943284758,0.004982906346914044,3.4602664519151474,71.10049142468402,30.903827667236328,2.849761724472046,0.0008121142745949328,1.5774168609641492,36.382572,1.5166007,0.00023000776,33.218238830566406,46.04744338989258,2,5,3,5
218,115,128,256,4,159,2539,649984,7149824,2358296,10296,7.256474005513982,3.628237002756991,0.004365864166330265,3.0317754853504395,67.01602724766371,31.09870147705078,2.7865371704101562,0.0007764790207147598,1.6998492840211838,37.086372,1.3985608,0.00019559723,33.46768569946289,46.144954681396484,2,5,3,6
219,115,141,256,4,159,2539,649984,7149824,2633752,10296,7.35686971192657,4.052025896022056,0.003909251896154231,2.714691436399479,63.16340094525404,32.34640884399414,2.4136788845062256,0.0005825846455991268,1.5633663649205118,37.13726,1.3903911,0.00019331876,33.46049499511719,45.621177673339844,2,5,3,5
220,115,154,256,4,159,2539,649984,7149824,2926040,10296,7.483363426648184,4.501710811343049,0.00351874888928381,2.4435154680045383,59.075356260517744,33.214595794677734,2.1840882301330566,0.00047702417941763997,1.562137664994225,37.31137,1.3627979,0.00018572179,33.36505126953125,46.15536880493164,2,4,3,5
221,115,167,256,4,159,2539,649984,7149824,3136024,10296,7.396056252992243,4.824771071287909,0.003283138139248934,2.2799009191256188,56.13844480647356,33.43232727050781,2.130019426345825,0.0004536983324214816,1.578240344999358,37.225456,1.3763441,0.00018943232,33.340301513671875,45.994850158691406,2,4,3,5
222,115,180,256,4,159,2539,649984,7149824,3375576,10296,7.386057502953919,5.193321681764474,0.0030501461083975003,2.11810488047077,52.787984711232056,33.93571853637695,2.010082960128784,0.00040404341416433454,1.5721897941548382,37.813507,1.2862476,0.00016544329,33.24720001220703,45.22650146484375,2,4,3,5
223,115,192,256,4,159,2539,649984,7149824,3567320,10296,7.317759616646974,5.4883197124852305,0.0028862002848076425,2.0042564165816357,50.10618443195245,34.649925231933594,1.8514149188995361,0.00034277368104085326,1.5667163501493633,39.128445,1.1055484,0.00012222373,33.706207275390625,44.79624938964844,2,4,3,6
224,115,205,256,4,159,2539,649984,7149824,3800088,10296,7.300911632196275,5.846433142969673,0.00270941093995718,1.8814890602533414,46.85060779118479,34.5550651550293,1.8717451095581055,0.0003503429761622101,1.5574022219516341,36.857502,1.4359021,0.00020618149,33.418792724609375,45.89557647705078,2,4,3,6
225,116,26,256,4,159,2539,649984,7149824,462904,10296,7.01220953131154,0.7121775305238283,0.022242192765670635,15.445586989959041,93.52565881341974,22.132333755493164,7.823178768157959,0.006120213307440281,1.6753444629721344,39.332542,1.0798731,0.00011661259,33.91841506958008,51.95972442626953,5,6,2,5
226,116,39,256,4,159,2539,649984,7149824,661208,10296,6.677452257601923,1.017268117369043,0.015571499437393378,10.813275096490061,90.75210802391778,18.853862762451172,11.410558700561523,0.013020086102187634,1.582861355971545,39.010296,1.1206887,0.0001255943,33.21940231323242,50.9167366027832,4,6,2,5
227,116,52,256,4,159,2539,649984,7149824,862200,10296,6.530432938467598,1.3264941906262309,0.011941544885177452,8.292535374623057,87.9409619033979,24.095083236694336,6.240880012512207,0.003894858295097947,1.5626437771134079,37.947304,1.2665861,0.00016042402,33.03074264526367,48.22539138793945,4,6,2,5
228,116,64,256,4,159,2539,649984,7149824,1130488,10296,6.957020480504135,1.7392551201260338,0.00910757124356915,6.324546567500053,84.18858981703606,26.0694522857666,4.971955299377441,0.002472034189850092,1.5825392690021542,41.079304,0.8831504,7.7995464e-05,34.25587844848633,46.48011779785156,4,6,2,5
229,116,77,256,4,159,2539,649984,7149824,1377752,10296,7.0472166667519165,2.119670638046475,0.007473043044031146,5.18948548069609,80.73026692685023,23.6447696685791,6.572967052459717,0.004320389591157436,1.596775904064998,38.33514,1.2112755,0.00014671883,33.42310333251953,44.998600006103516,3,6,3,6
230,116,90,256,4,159,2539,649984,7149824,1570552,10296,6.87301212200779,2.4162933241433637,0.006555656864592831,4.5524274267900715,78.03369705324215,26.54371452331543,4.707758903503418,0.00221629929728806,1.5823601610027258,38.979073,1.1247247,0.00012650057,33.50796127319336,44.56130599975586,3,6,3,6
231,116,103,256,4,159,2539,649984,7149824,1758104,10296,6.7227140109438395,2.704841965340685,0.005856308841797755,4.06678103229388,75.41052758781196,28.016754150390625,3.9733994007110596,0.001578790252096951,1.5787152578122916,37.9622,1.2644155,0.00015987465,33.39419174194336,45.175270080566406,3,6,3,6
232,116,116,256,4,159,2539,649984,7149824,2071576,10296,7.033640721978514,3.1871184521465143,0.004970129022541292,3.4513935284054265,71.02619588957714,28.791566848754883,3.634305953979492,0.0013208180898800492,1.69014034117572,36.327244,1.5262926,0.0002329569,33.293190002441406,45.34738540649414,3,6,3,6
233,116,128,256,4,159,2539,649984,7149824,2411064,10296,7.418841079165025,3.7094205395825126,0.004270313853137038,2.9654227345271633,66.27799509470442,28.316099166870117,3.8387954235076904,0.0014736352022737265,1.5831326430197805,37.74785,1.2960074,0.0001679635,33.88877868652344,44.88747787475586,3,6,3,6
234,116,141,256,4,159,2539,649984,7149824,2619096,10296,7.315931050086732,4.029477648680583,0.00393112738135601,2.7298823716274625,63.368385011994704,28.79425811767578,3.633180618286133,0.001320000272244215,1.5778930790256709,37.70344,1.3026502,0.00016968974,33.63160705566406,45.186702728271484,3,5,3,6
235,116,154,256,4,159,2539,649984,7149824,2885464,10296,7.3795900830166286,4.439284659314691,0.0035682302742297252,2.477876695048006,59.642866733502814,30.035337448120117,3.14943790435791,0.000991896027699113,1.5812433289829642,37.870426,1.2778466,0.00016328918,33.652034759521484,45.565467834472656,3,5,3,6
236,116,167,256,4,159,2539,649984,7149824,3050360,10296,7.194024711506487,4.69297705789681,0.0033753393042132733,2.3439279298181197,57.33657220093809,30.422969818115234,3.0119752883911133,0.0009071995154954493,1.592292470857501,37.015064,1.4100897,0.00019883532,33.540470123291016,44.32138442993164,3,5,3,6
237,116,180,256,4,159,2539,649984,7149824,3284760,10296,7.187344098726533,5.053601319417093,0.0031344755781244293,2.176665570696185,54.058169823480966,30.970626831054688,2.8279290199279785,0.000799718254711479,1.5644867920782421,38.517548,1.1861031,0.00014068405,33.793514251708984,44.69352340698242,2,5,3,7
238,116,192,256,4,159,2539,649984,7149824,3456472,10296,7.0903735066299065,5.31778012997243,0.002978759845298906,2.0685323069303037,51.65654427297791,29.754430770874023,3.252957820892334,0.0010581734823063016,1.5714987309183928,38.37232,1.2061019,0.00014546816,33.262447357177734,44.356040954589844,2,5,3,7
239,116,205,256,4,159,2539,649984,7149824,3684568,10296,7.078969058300272,5.668705691217014,0.0027943574389182125,1.940478232454931,48.46631189802714,30.125776290893555,3.1168155670166016,0.0009714539628475904,1.5625331229530275,36.639317,1.4724282,0.0002168045,33.34048843383789,43.85778045654297,2,5,3,6
240,117,26,256,4,159,2539,649984,7149824,421848,10296,6.39028084951677,0.6490128987790469,0.02440689537463731,16.94881568716694,94.0998827383723,23.24469566345215,6.882800102233887,0.004737293813377619,1.6790311650838703,36.542442,1.4889421,0.00022169489,33.80152130126953,49.2050895690918,6,6,2,3
241,117,39,256,4,159,2539,649984,7149824,616248,10296,6.223407156057806,0.9480971839306813,0.016707559294310084,11.602186132855604,91.38093469153927,23.428699493408203,6.738526344299316,0.004540774039924145,1.5666471361182628,40.593258,0.93397844,8.7231565e-05,33.40376663208008,46.039119720458984,5,6,2,3
242,117,52,256,4,159,2539,649984,7149824,843160,10296,6.386221104614172,1.2972011618747539,0.012211205465154893,8.479795056691493,88.20726216477496,27.511098861694336,4.211579322814941,0.0017737401649355888,1.5645646918565035,35.234684,1.7308753,0.00029959297,33.129093170166016,46.01027297973633,5,6,2,3
243,117,64,256,4,159,2539,649984,7149824,1052952,10296,6.479864119732178,1.6199660299330445,0.009778223508763933,6.790265843077368,85.27303609151778,30.58864974975586,2.9550676345825195,0.0008732424466870725,1.5662459000013769,38.518684,1.1859484,0.00014064736,33.58216857910156,45.209861755371094,5,6,2,3
244,117,77,256,4,159,2539,649984,7149824,1304696,10296,6.6735344214666785,2.0072740252067742,0.007891493497335778,5.48006892026955,81.75205431630205,30.4586181640625,2.9996397495269775,0.0008997838594950736,1.596218805061653,39.44012,1.066581,0.00011375952,34.95030975341797,42.90879821777344,4,6,3,4
245,117,90,256,4,159,2539,649984,7149824,1511448,10296,6.614362609951424,2.3253618550610478,0.00681201073407752,4.730446565148123,78.86034677217229,31.68988609313965,2.6031880378723145,0.0006776588270440698,1.5806057548616081,40.47223,0.94708407,8.9696834e-05,33.71920394897461,46.1280632019043,4,5,2,4
246,117,103,256,4,159,2539,649984,7149824,1761912,10296,6.73727520581836,2.710700571090981,0.005843651669322872,4.057991545548245,75.35726753553654,33.18737030029297,2.1909449100494385,0.00048002394032664597,1.5664623838383704,40.681194,0.92457086,8.548313e-05,35.34623718261719,45.74627685546875,4,5,3,4
247,117,116,256,4,159,2539,649984,7149824,2039064,10296,6.9232524344365824,3.1370987593540764,0.005049375595861631,3.506424516346716,71.4809203695084,34.62659454345703,1.8563940525054932,0.0003446199116297066,1.6680965421255673,35.509003,1.6770647,0.00028125456,33.465492248535156,44.1429557800293,4,5,3,4
248,117,128,256,4,159,2539,649984,7149824,2315448,10296,7.124630760141788,3.562315380070894,0.0044466556795920275,3.087879321841821,67.61531472662824,35.36616516113281,1.704871654510498,0.0002906587324105203,1.578879124019295,38.369083,1.2065511,0.00014557655,33.99739456176758,42.92245101928711,4,5,3,4
249,117,141,256,4,159,2539,649984,7149824,2482808,10296,6.935237249266059,3.819798641197322,0.004146917522418165,2.879732947533599,65.27455780729707,35.926387786865234,1.5983816385269165,0.00025548235862515867,1.572202676907182,38.654163,1.1675936,0.00013632748,34.138458251953125,42.35116958618164,4,5,3,4
250,117,154,256,4,159,2539,649984,7149824,2746488,10296,7.024158197060915,4.225470165419456,0.003748787542490628,2.6032606004468253,61.58663485982312,35.99148178100586,1.5864485502243042,0.000251681893132627,1.5784127900842577,37.968277,1.2635313,0.00015965114,33.9324951171875,43.01956558227539,3,5,3,4
251,117,167,256,4,159,2539,649984,7149824,2881144,10296,6.794942607891739,4.432638341866877,0.0035735804944147186,2.481592034275274,59.70328780121021,36.2822265625,1.5342234373092651,0.000235384184634313,1.5604112399742007,35.37493,1.7031518,0.00029007267,33.29243469238281,43.081138610839844,3,4,3,5
252,117,180,256,4,159,2539,649984,7149824,3129176,10296,6.846912607763336,4.814235427333596,0.003290323075467791,2.284890335347069,56.2342233878764,36.624420166015625,1.4749555587768555,0.00021754940098617226,1.586288929916918,39.603664,1.0466865,0.00010955527,33.55094528198242,45.2098503112793,3,4,3,4
253,117,192,256,4,159,2539,649984,7149824,3326968,10296,6.824717736641722,5.118538302481292,0.0030947096575620805,2.1490510278427686,53.46783361380644,37.028690338134766,1.40787935256958,0.000198212408577092,1.5752833138685671,40.14364,0.98359895,9.674669e-05,33.45799255371094,45.35108184814453,3,4,3,5
254,117,205,256,4,159,2539,649984,7149824,3615320,10296,6.945926473837405,5.562167684127609,0.0028478806855271456,1.977646238783842,49.434839235203555,37.27785873413086,1.368065595626831,0.00018716033082455397,1.5735536799766123,37.301395,1.3643632,0.00018614868,33.78789520263672,43.49750518798828,3,4,3,4
255,118,26,256,4,159,2539,649984,7149824,435640,10296,6.599206228981731,0.6702318826309571,0.02363419337067303,16.412230281884124,93.90698288517312,17.853782653808594,12.802971839904785,0.016391610726714134,1.690357703948394,37.60204,1.3179473,0.00017369851,33.81114959716797,46.865394592285156,6,6,2,4
256,118,39,256,4,159,2539,649984,7149824,631416,10296,6.376586784621444,0.9714331429696731,0.016306207001406364,11.32347612350653,91.16878960936661,18.089935302734375,12.459572792053223,0.01552409678697586,1.5776591671165079,40.219246,0.97507405,9.507694e-05,33.45173645019531,44.23881912231445,5,6,2,5
257,118,52,256,4,159,2539,649984,7149824,871256,10296,6.599024449359227,1.340426841276093,0.011817422204266025,8.206341190189795,87.81430144294461,22.83616065979004,7.21426248550415,0.005204557906836271,1.5581450951285665,36.21762,1.5456775,0.00023891192,33.15324020385742,46.33903884887695,5,6,2,4
258,118,64,256,4,159,2539,649984,7149824,1088920,10296,6.701211106734935,1.6753027766837338,0.009455240054365793,6.565977298607795,84.7699747574206,25.776521682739258,5.1424946784973145,0.0026445251423865557,1.5548094820696856,40.25652,0.9708989,9.4264484e-05,33.707786560058594,45.15861129760742,4,6,2,4
259,118,77,256,4,159,2539,649984,7149824,1329528,10296,6.8005503751860585,2.045478042536432,0.007744101666155207,5.37771600146819,81.40474506785063,26.01948356628418,5.000641822814941,0.002500642091035843,1.583000539103523,37.96355,1.2642192,0.00015982501,33.50789260864258,44.738033294677734,4,5,3,5
260,118,90,256,4,159,2539,649984,7149824,1534264,10296,6.714209443788018,2.360464257581725,0.006710709499799252,4.660100217433245,78.54123402198432,28.560522079467773,3.732276439666748,0.0013929888373240829,1.5867093421984466,38.90713,1.1340791,0.00012861354,33.46919250488281,45.90336608886719,4,5,2,5
261,118,103,256,4,159,2539,649984,7149824,1778136,10296,6.799313237762746,2.7356611855061046,0.005790333247850558,4.020965775396258,75.13035285903541,30.73188018798828,2.906738519668579,0.0008449127781204879,1.5620458410121498,38.371223,1.2062538,0.00014550482,33.369380950927734,45.93876266479492,4,5,3,5
262,118,116,256,4,159,2539,649984,7149824,2087448,10296,7.087531067077726,3.2115375147695944,0.0049323384342987225,3.425150710341048,70.80420441118551,32.585205078125,2.348224401473999,0.0005514158401638269,1.6859116528648888,37.018047,1.4096056,0.0001986988,33.28362274169922,45.826316833496094,4,5,3,6
263,118,128,256,4,159,2539,649984,7149824,2352312,10296,7.2380612445844825,3.6190306222922413,0.004376970401885464,3.039487959080258,67.09972161552508,32.457611083984375,2.38297438621521,0.0005678566521964967,1.5576016060076652,37.37254,1.3532343,0.00018312431,33.660545349121094,45.20838928222656,4,5,3,5
264,118,141,256,4,159,2539,649984,7149824,2540856,10296,7.097382953583669,3.9091054549035054,0.004052177691297736,2.813943017628705,64.4626776826954,33.75038528442383,2.0534331798553467,0.0004216587694827467,1.5671905879862604,38.135487,1.2394398,0.0001536211,33.55659484863281,44.366451263427734,3,4,3,5
265,118,154,256,4,159,2539,649984,7149824,2796312,10296,7.151583351662123,4.302124359984246,0.003681992567352999,2.556876342840141,60.889778545597764,34.166927337646484,1.9572827816009521,0.00038309558294713497,1.5829363230150189,36.658077,1.4692508,0.00021586979,33.54644775390625,45.517250061035156,3,4,3,5
266,118,167,256,4,159,2539,649984,7149824,2948184,10296,6.953050967776932,4.535779342260732,0.0034923193396341613,2.425162065868345,58.76564234308425,34.888389587402344,1.8012768030166626,0.00032445983379147947,1.5600727600976827,36.909508,1.4273305,0.0002037272,33.261695861816406,42.994625091552734,3,4,3,5
267,118,180,256,4,159,2539,649984,7149824,3190520,10296,6.981138681020524,4.908613135092556,0.0032270601657410076,2.2409588405651744,55.37624422643131,35.25846481323242,1.7261425256729126,0.00029795680893585086,1.5620898630004376,37.180717,1.3834516,0.00019139383,33.57555389404297,43.1441650390625,3,4,3,5
268,118,192,256,4,159,2539,649984,7149824,3374104,10296,6.921409347512144,5.191057010634108,0.003051476777242195,2.119028933310888,52.808572630599016,35.968101501464844,1.5907241106033325,0.00025304031441919506,1.5600703260861337,37.923515,1.2700598,0.00016130522,33.35021209716797,45.96531677246094,3,4,3,6
269,118,205,256,4,159,2539,649984,7149824,3631864,10296,6.977711601456306,5.587620618353682,0.002834907915054088,1.9686375921565344,49.20344892405743,35.601280212402344,1.6593420505523682,0.000275341619271785,1.5523194780107592,36.336143,1.5247293,0.00023247994,33.3881950378418,46.02762222290039,3,4,3,6
270,119,26,256,4,159,2539,649984,7149824,459480,10296,6.960341745690308,0.7069097085466719,0.022407939409767562,15.560685992861496,93.57354810412116,22.305219650268555,7.669003963470459,0.0058813621290028095,1.6683161710388954,38.6927,1.1624252,0.00013512322,33.981300354003906,46.7974853515625,6,6,2,4
271,119,39,256,4,159,2539,649984,7149824,652024,10296,6.584704254653054,1.003138538794801,0.015790829785406673,10.965584088929242,90.88055873822908,20.38636016845703,9.564931869506836,0.009148791432380676,1.5649358420632777,37.80267,1.2878531,0.00016585657,33.41749572753906,43.994140625,5,6,2,4
272,119,52,256,4,159,2539,649984,7149824,898072,10296,6.80213288090405,1.3816832414336353,0.01146455963441684,7.961303770744439,87.43924325969422,26.020090103149414,5.000292778015137,0.002500292845070362,1.5630375589244068,37.701206,1.3029859,0.00016977725,33.19474792480469,46.084312438964844,5,6,2,4
273,119,64,256,4,159,2539,649984,7149824,1121464,10296,6.901486805829067,1.7253717014572667,0.009180856451923557,6.375437820563121,84.31480271402485,28.42006492614746,3.793120861053467,0.0014387764967978,1.569552359171212,37.76558,1.2933644,0.00016727915,33.51412582397461,45.77860641479492,5,5,2,4
274,119,77,256,4,159,2539,649984,7149824,1360280,10296,6.957847194160704,2.0927899763686493,0.007569029905607669,5.256141382656512,80.97463657846683,27.294784545898438,4.317781925201416,0.0018643238581717014,1.5665739430114631,37.829044,1.2839489,0.00016485246,33.63746643066406,43.95602035522461,4,5,3,4
275,119,90,256,4,159,2539,649984,7149824,1558008,10296,6.81811736904293,2.3969943875541553,0.006608438467581681,4.5890804155049265,78.20914193132586,29.796367645263672,3.2372891902923584,0.0010480041382834315,1.5778723249677573,37.871464,1.2776937,0.00016325014,33.339664459228516,46.186763763427734,4,5,2,5
276,119,103,256,4,159,2539,649984,7149824,1800504,10296,6.8848449622777865,2.7700743402914534,0.00571839884832247,3.971012560927385,74.81750599735042,31.315610885620117,2.717811346054077,0.0007386499200947583,1.567190316971391,36.952477,1.4202871,0.00020172154,33.144859313964844,46.121612548828125,4,5,3,4
277,119,116,256,4,159,2539,649984,7149824,2131160,10296,7.235946815879181,3.278788400945254,0.0048311717562266555,3.354897802135926,70.19283271867951,33.46644973754883,2.1216681003570557,0.00045014754869043827,1.6695572780445214,37.250538,1.3723763,0.00018834166,33.67808532714844,45.019649505615234,4,5,3,5
278,119,128,256,4,159,2539,649984,7149824,2397560,10296,7.377289287120914,3.688644643560457,0.004294365938704349,2.982125160579923,66.46686687672312,33.03785705566406,2.228985071182251,0.0004968374851159751,1.5846177998464555,38.8852,1.1369464,0.00012926472,33.74596405029297,45.80855941772461,4,5,3,4
279,119,141,256,4,159,2539,649984,7149824,2593784,10296,7.245226941974698,3.990535151634502,0.003969490134876305,2.7565225169096577,63.72240771241362,34.71297073364258,1.8380247354507446,0.0003378335095476359,1.5801276850979777,38.18999,1.2316874,0.00015170539,33.57777404785156,43.99189758300781,4,4,3,5
280,119,154,256,4,159,2539,649984,7149824,2843672,10296,7.2727068126831815,4.374987692004726,0.003620670738397396,2.514292787635142,60.22738461813885,34.88343048095703,1.8023054599761963,0.00032483050017617643,1.5728022491093725,38.56424,1.1797447,0.00013917976,33.298583984375,43.99679946899414,4,4,3,5
281,119,167,256,4,159,2539,649984,7149824,3007800,10296,7.0936504305292525,4.627498523040567,0.0034230999401555955,2.377094221690272,57.93183160872211,35.588584899902344,1.6617685556411743,0.000276147504337132,1.5646152729168534,36.23361,1.5428355,0.00023803415,33.42045211791992,41.50666046142578,3,4,3,6
282,119,180,256,4,159,2539,649984,7149824,3233592,10296,7.075384009452541,4.974879381646318,0.003184075170893545,2.2111088844851174,54.77382380321529,36.062217712402344,1.5735807418823242,0.000247615622356534,1.5663961300160734,38.12441,1.2410218,0.00015401348,33.392906188964844,43.013282775878906,3,4,3,5
283,119,192,256,4,159,2539,649984,7149824,3421144,10296,7.017904030458186,5.263428022843639,0.0030095196226759234,2.089892737633961,52.1506543377851,36.05126953125,1.5755655765533447,0.00024824071442708373,1.5651444429531687,36.614048,1.4767181,0.00021806965,33.35599136352539,42.95066833496094,3,4,3,5
284,119,205,256,4,159,2539,649984,7149824,3666520,10296,7.044294373625107,5.64093885387948,0.0028081123244929796,1.950030001200048,48.71873769200472,36.29718017578125,1.5315842628479004,0.00023457503993995488,1.674355949973687,37.91283,1.2716227,0.00016170242,33.429134368896484,44.93319320678711,3,4,3,5
285,121,26,256,4,159,2539,649984,7149824,441240,10296,6.684036719483746,0.678847479322568,0.023334239869458796,16.203934366784516,93.82865927888575,26.592594146728516,4.68134069442749,0.002191494917497039,1.5640356559306388,37.36712,1.354079,0.00018335298,33.961334228515625,47.762603759765625,6,6,2,5
286,121,39,256,4,159,2539,649984,7149824,636504,10296,6.427969824582664,0.9792610279637652,0.016175860638739114,11.23296004424167,91.09762701851122,25.164865493774414,5.517683029174805,0.0030444825533777475,1.5665917329024523,39.283806,1.0859494,0.000117928605,33.10085678100586,48.6931037902832,5,6,2,5
287,121,52,256,4,159,2539,649984,7149824,893336,10296,6.766261702063199,1.3743969082315872,0.011525338730332148,8.003510437282277,87.50548265244012,29.350210189819336,3.4079205989837646,0.0011613921960815787,1.5660363698843867,36.41883,1.5102832,0.00022809557,33.42958450317383,46.09244155883789,5,6,2,5
288,121,64,256,4,159,2539,649984,7149824,1078008,10296,6.634058684521465,1.6585146711303662,0.009550949529131509,6.632440575580144,84.92259389881485,31.23265266418457,2.7438933849334717,0.0007528951391577721,1.5667204419150949,38.525146,1.1850663,0.00014043822,33.64125442504883,46.23792266845703,4,6,2,5
289,121,77,256,4,159,2539,649984,7149824,1328344,10296,6.794494202135006,2.0436564592359194,0.007751004257933186,5.382509349987654,81.42130491603709,30.87994384765625,2.8576087951660156,0.000816592772025615,1.5742485141381624,38.162132,1.2356439,0.00015268158,33.46772766113281,45.62474060058594,4,6,3,6
290,121,90,256,4,159,2539,649984,7149824,1533080,10296,6.709028051288784,2.358642674281213,0.006715892190883711,4.663699219871109,78.55779387017078,31.851905822753906,2.5550806522369385,0.0006528437370434403,1.5654354428406803,39.1126,1.1075667,0.0001226704,33.515079498291016,46.245601654052734,4,6,2,6
291,121,103,256,4,159,2539,649984,7149824,1827384,10296,6.987629867274403,2.8114292044111857,0.0056342837630186104,3.912600745108855,74.44155268717104,34.015419006347656,1.9917229413986206,0.00039669597754254937,1.5630266480147834,39.266758,1.0880828,0.00011839241,33.56827163696289,45.75337219238281,4,6,3,6
292,121,116,256,4,159,2539,649984,7149824,2081304,10296,7.066670288329644,3.20208497439937,0.004946898675061403,3.435261739755461,70.89013659636936,35.29662322998047,1.718576192855835,0.00029535041539929807,1.6807475599925965,36.73107,1.4569553,0.00021227186,33.717655181884766,44.69496536254883,4,5,3,6
293,121,128,256,4,159,2539,649984,7149824,2327416,10296,7.161456282000787,3.5807281410003937,0.004423790160418249,3.0720008799458283,67.44792599090552,35.51898956298828,1.6751375198364258,0.0002806085685733706,1.560689187142998,38.248196,1.2234612,0.00014968571,34.21303176879883,44.39777374267578,4,5,3,6
294,121,141,256,4,159,2539,649984,7149824,2510840,10296,7.013539143964089,3.8629258566364713,0.004100619712924758,2.8475824823565024,64.88249221239572,36.207069396972656,1.5475560426712036,0.0002394929906586185,1.597995658172295,38.216225,1.2279729,0.00015079173,33.67726516723633,46.036766052246094,3,5,3,7
295,121,154,256,4,159,2539,649984,7149824,2765848,10296,7.073671503762091,4.255255513981883,0.003722547298333097,2.5850386572219444,61.31585896380107,36.350181579589844,1.5222671031951904,0.00023172973305918276,1.5795562628190964,37.24133,1.3738316,0.00018874134,33.32030487060547,42.1820182800293,3,5,3,6
296,121,167,256,4,159,2539,649984,7149824,2922008,10296,6.891317011506723,4.4955075817250885,0.0035236043159361644,2.4468872090699274,59.131749257044646,36.55821990966797,1.4862396717071533,0.0002208908408647403,1.5770046459510918,36.015606,1.5820477,0.00025028753,33.43749237060547,44.09227752685547,3,5,3,6
297,121,180,256,4,159,2539,649984,7149824,3158712,10296,6.911539976368649,4.859676545884207,0.003259556426796745,2.2635251330289052,55.82112231014358,36.97454071044922,1.4166831970214844,0.00020069914171472192,1.576413214905187,38.75446,1.1541889,0.00013321519,33.327857971191406,45.904273986816406,3,5,3,6
298,121,192,256,4,159,2539,649984,7149824,3369272,10296,6.9114973086517,5.183622981488775,0.003055853015132052,2.122067912593581,52.87615471373841,37.431556701660156,1.3440704345703125,0.00018065253971144557,1.558520563878119,38.374786,1.2057593,0.00014538555,33.32721710205078,46.37813186645508,3,5,3,7
299,121,205,256,4,159,2539,649984,7149824,3699256,10296,7.107188349551869,5.691303170539583,0.0027832623641078098,1.9327735090515499,48.260880267821975,36.718597412109375,1.4590494632720947,0.00021288252901285887,1.6631734240800142,37.24043,1.3739734,0.0001887803,33.30791473388672,44.71455001831055,3,5,3,6
300,122,26,256,4,159,2539,649984,7149824,418712,10296,6.342775774835641,0.6441881646317448,0.024589694109555017,17.075756128317316,94.14374395789324,24.03761863708496,6.282305717468262,0.003946736920624971,1.6104859688784927,36.72208,1.4584645,0.00021271186,34.030826568603516,46.5704345703125,6,6,2,4
301,122,39,256,4,159,2539,649984,7149824,609912,10296,6.159420728936286,0.9383492516738874,0.016881123834258056,11.722714096459818,91.46955225751012,22.157079696655273,7.8009233474731445,0.0060854400508105755,1.5782762779854238,38.830322,1.1441522,0.00013090842,33.10550308227539,45.35765075683594,5,6,2,4
302,122,52,256,4,159,2539,649984,7149824,872824,10296,6.610900718029509,1.342839208349744,0.011796192588654757,8.191598764470271,87.79237083318415,27.13814353942871,4.396354675292969,0.001932793646119535,1.5628118799068031,36.066204,1.5728586,0.0002473884,32.86946105957031,45.901649475097656,5,6,2,4
303,122,64,256,4,159,2539,649984,7149824,1055032,10296,6.492664434816857,1.6231661087042142,0.009758945700225206,6.776878805571774,85.24394446632533,29.28075408935547,3.4352807998657227,0.0011801155051216483,1.5596261909231544,38.203327,1.2297976,0.00015124022,33.54023742675781,45.12169647216797,5,5,2,4
304,122,77,256,4,159,2539,649984,7149824,1305144,10296,6.675825946404914,2.0079632729421033,0.00788878468582777,5.478187847471237,81.74578842779906,28.910123825073242,3.58503794670105,0.0012852497166022658,1.5754285780712964,39.459183,1.0642433,0.0001132614,33.58787155151367,42.69350051879883,5,5,2,5
305,122,90,256,4,159,2539,649984,7149824,1491640,10296,6.527679313815588,2.2948872587632927,0.006902469764822611,4.793263790190663,79.13738855669735,30.68993377685547,2.920809268951416,0.0008531127241440117,1.56599807809107,40.22634,0.97427803,9.492178e-05,33.558414459228516,46.15138244628906,4,5,2,4
306,122,103,256,4,159,2539,649984,7149824,1803416,10296,6.89597999365242,2.774554450571091,0.0057091652730152116,3.964600513691794,74.776777722081,33.17720031738281,2.193511962890625,0.0004811495018657297,1.5563264240045105,41.22585,0.86837524,7.540755e-05,33.38592529296875,46.29761505126953,4,5,3,4
307,122,116,256,4,159,2539,649984,7149824,2078584,10296,7.057435047738045,3.1979002560063017,0.004953372103316488,3.439757065386821,70.9281794908518,34.64775466918945,1.8518773317337036,0.0003429449861869216,1.6660987769719213,36.25054,1.5398302,0.00023710771,33.82469177246094,45.29225158691406,4,5,3,5
308,122,128,256,4,159,2539,649984,7149824,2330904,10296,7.17218885387948,3.58609442693974,0.0044171703339133655,3.0674038913657533,67.39914157327509,34.772865295410156,1.8253945112228394,0.00033320655347779393,1.572011516895145,39.74433,1.0298723,0.00010606369,34.79379653930664,44.126922607421875,4,4,3,5
309,122,141,256,4,159,2539,649984,7149824,2504024,10296,6.994499984636828,3.8524394446632533,0.004111781676213966,2.855333654948994,64.97782323033407,35.65297317504883,1.6494953632354736,0.00027208353276364505,1.5775196959730233,40.38402,0.95675063,9.1537186e-05,35.06282424926758,43.86158752441406,4,4,3,5
310,122,154,256,4,159,2539,649984,7149824,2760376,10296,7.059676833603576,4.246836845214651,0.003729926647674085,2.5901630792326844,61.39239231623044,35.78229522705078,1.625118613243103,0.0002641010796651244,1.5712206878233697,38.72289,1.1583917,0.00013418714,33.835960388183594,43.29422378540039,4,4,3,5
311,122,167,256,4,159,2539,649984,7149824,2894776,10296,6.827092565558131,4.453611165813312,0.0035567518868472032,2.4699057889107827,59.512625765333524,36.139625549316406,1.5596191883087158,0.00024324121477548033,1.5553392509464177,35.776184,1.6262628,0.00026447308,33.6104736328125,42.02153015136719,4,4,3,5
312,122,180,256,4,159,2539,649984,7149824,3128920,10296,6.846352457222879,4.813841571484836,0.0032905922810426602,2.2850772790611455,56.23780389559239,36.53822326660156,1.4896652698516846,0.00022191027528606355,1.5687112261075529,40.254272,0.9711501,9.431325e-05,35.500648498535156,44.87197494506836,3,4,3,5
313,122,192,256,4,159,2539,649984,7149824,3297784,10296,6.764851647630301,5.073638735722725,0.0031220965351278314,2.168069224667231,53.87601149342977,36.68831253051758,1.464145541191101,0.000214372223126702,1.571663014125079,39.104973,1.1085395,0.00012288599,33.31521224975586,46.02023696899414,3,4,3,5
314,122,205,256,4,159,2539,649984,7149824,3560056,10296,6.839750622004054,5.4771440527766835,0.002892089337920527,2.0083459361313416,50.20778133839379,37.01105880737305,1.4107401371002197,0.00019901877385564148,1.6647323861252517,37.4517,1.3409579,0.0001798168,33.855224609375,42.28593826293945,3,4,3,5
315,123,26,256,4,159,2539,649984,7149824,410456,10296,6.217711394552671,0.6314863135092557,0.025084296489757733,17.41922154871655,94.25921533173404,24.374948501586914,6.04299783706665,0.00365178263746202,1.5657049741130322,36.243202,1.5411314,0.00023750859,33.69697952270508,46.1159782409668,6,6,2,4
316,123,39,256,4,159,2539,649984,7149824,596056,10296,6.01949081507963,0.9170318038597873,0.017273544767605727,11.995221925456669,91.66334723763829,21.418729782104492,8.493045806884766,0.007213182747364044,1.5633612540550526,36.855232,1.4362773,0.00020628925,33.016658782958984,42.97947311401367,6,6,2,4
317,123,52,256,4,159,2539,649984,7149824,873304,10296,6.614536310479595,1.3435776880661678,0.011789708967324094,8.187096360488443,87.78565738121665,27.646940231323242,4.146225452423096,0.0017191184451803565,1.5575107911136004,35.610252,1.6576293,0.00027477348,33.49028015136719,45.52521896362305,5,6,2,4
318,123,64,256,4,159,2539,649984,7149824,1036600,10296,6.379233950374163,1.5948084875935407,0.009932471541578237,6.897379895813236,85.5017410218769,29.24183464050293,3.4507081508636475,0.0011907387524843216,1.5794469299726193,37.62699,1.3141661,0.00017270325,33.52701950073242,45.199947357177734,5,5,2,4
319,123,77,256,4,159,2539,649984,7149824,1285944,10296,6.577617734766219,1.9784240842851517,0.008006569492917266,5.5599808389789915,82.01432650649862,29.331401824951172,3.4153075218200684,0.0011664326302707195,1.566742359893397,39.99194,1.0009285,0.00010018578,34.478206634521484,42.76619338989258,5,5,3,5
320,123,90,256,4,159,2539,649984,7149824,1496248,10296,6.547844733272067,2.301976664040961,0.006881212205463266,4.7785019595682,79.07293941780945,30.778017044067383,2.8913395404815674,0.0008359844796359539,1.5612853579223156,39.54216,1.0541241,0.000111117784,33.554344177246094,46.33031463623047,4,5,2,5
321,123,103,256,4,159,2539,649984,7149824,1842904,10296,7.0469759136117345,2.8353067152422216,0.00558683469133498,3.8796508119793542,74.22448440688889,34.2321891784668,1.9426318407058716,0.00037738183164037764,1.559255097992718,42.545708,0.7459582,5.564536e-05,35.87323760986328,46.073081970214844,4,5,3,5
322,123,116,256,4,159,2539,649984,7149824,2044344,10296,6.941179666173215,3.1452220362347383,0.005036334393820218,3.49736834896671,71.40707239786602,34.6367073059082,1.8542336225509644,0.00034381827572360635,1.6681777308695016,36.432213,1.507958,0.00022739374,33.94864273071289,43.24759292602539,4,5,3,5
323,123,128,256,4,159,2539,649984,7149824,2294968,10296,7.0616138243402915,3.5308069121701458,0.004486337064394798,3.1154351607516966,67.90175534390777,34.74490737915039,1.8312791585922241,0.0003353582869749516,1.5833768621087074,39.373714,1.0747663,0.000115512266,33.60527801513672,43.843563079833984,4,4,3,6
324,123,141,256,4,159,2539,649984,7149824,2462264,10296,6.877851614110654,3.7881917093343835,0.004181517497717548,2.903760116705601,65.5618935515056,35.49641799926758,1.6794965267181396,0.00028207083232700825,1.5768645079806447,39.788372,1.0246636,0.00010499355,33.64893341064453,42.75871276855469,4,4,3,6
325,123,154,256,4,159,2539,649984,7149824,2719352,10296,6.954757727502903,4.183721445450965,0.003786196123194055,2.629238142027954,61.9661686777185,35.567710876464844,1.6657673120498657,0.00027747807325795293,1.5643867179751396,39.12388,1.1061296,0.00012235227,33.78888702392578,41.76948165893555,4,4,3,5
326,123,167,256,4,159,2539,649984,7149824,2846936,10296,6.714265836188985,4.3800093540764085,0.0036165196548148607,2.5114101616615194,60.181733144759924,35.78565979003906,1.6244897842407227,0.0002638967416714877,1.5650619440712035,35.971123,1.5901707,0.0002528643,33.408992767333984,41.407840728759766,4,4,3,6
327,123,180,256,4,159,2539,649984,7149824,3084248,10296,6.748606187913001,4.74511372587633,0.0033382529550152907,2.3181741546075414,56.86260249203337,36.13325881958008,1.5607627630233765,0.00024359805684071034,1.5781970859970893,39.735836,1.0308797,0.0001062713,33.770320892333984,44.80531311035156,3,4,3,5
328,123,192,256,4,159,2539,649984,7149824,3308696,10296,6.787235788368124,5.090426841276093,0.0031117999356846324,2.1609189843974788,53.72339235203552,36.654029846191406,1.4699363708496094,0.00021607131930068135,1.5847203191369776,38.74527,1.1554104,0.00013349733,33.255088806152344,46.384864807128906,3,4,3,6
329,123,205,256,4,159,2539,649984,7149824,3713112,10296,7.133809162431916,5.712620618353682,0.0027728762288883285,1.9255610926899054,48.06708528769379,37.427757263183594,1.344658374786377,0.00018081063171848655,1.6617455028463157,37.87092,1.277774,0.00016327061,33.609046936035156,43.10696792602539,3,4,3,5
330,124,26,256,4,159,2539,649984,7149824,462456,10296,7.0054230920713785,0.7114882827884994,0.022263739685505216,15.46054976040964,93.53192470192273,23.564207077026367,6.634215831756592,0.0044012819416821,1.5691250611562282,39.235584,1.0919952,0.00011924538,33.58658218383789,49.32368850708008,5,6,2,4
331,124,39,256,4,159,2539,649984,7149824,655096,10296,6.61572797689379,1.0078648089799134,0.015716780441339895,10.914162199128066,90.83759264563714,22.194272994995117,7.76759147644043,0.006033548153936863,1.569218616001308,38.79449,1.1488818,0.00013199294,33.2190055847168,46.31029510498047,5,6,2,4
332,124,52,256,4,159,2539,649984,7149824,925464,10296,7.009604023388978,1.4238258172508862,0.011125230154819636,7.725664099305861,87.05612893408285,26.74117088317871,4.6019439697265625,0.0021177888847887516,1.5665222969837487,37.811714,1.2865132,0.00016551162,33.157474517822266,46.12097930908203,4,6,2,4
333,124,64,256,4,159,2539,649984,7149824,1119096,10296,6.88691413942497,1.7217285348562426,0.009200283085633405,6.388928206337972,84.3479224103978,29.700023651123047,3.273397207260132,0.001071512931957841,1.5911379749886692,40.489647,0.9451866,8.933777e-05,33.63884735107422,46.04547119140625,4,6,2,4
334,124,77,256,4,159,2539,649984,7149824,1354008,10296,6.925765845025396,2.083140508074045,0.007604090965489125,5.2804887415731665,81.06235901750868,29.411643981933594,3.383901357650757,0.0011450788006186485,1.560426487820223,38.05948,1.2503339,0.0001563335,33.44807815551758,45.02337646484375,4,6,3,5
335,124,90,256,4,159,2539,649984,7149824,1573016,10296,6.883795019911601,2.420084186687672,0.006545387968081698,4.545296424194032,77.9992346664757,31.35618782043457,2.7051446437835693,0.00073178083403036,1.5630566489417101,39.799866,1.0233085,0.00010471602,33.769100189208984,46.06896209716797,4,5,2,4
336,124,103,256,4,159,2539,649984,7149824,1865400,10296,7.132997090055331,2.8699167979519498,0.005519459633322611,3.8328637289589365,73.90984729134591,33.47954559326172,2.11847186088562,0.00044879232882522047,1.6718807339202615,39.623253,1.0443289,0.00010906229,34.24178695678711,46.19297409057617,3,5,3,4
337,124,116,256,4,159,2539,649984,7149824,2132056,10296,7.238989012779943,3.2801668964159116,0.004829141448442255,3.353487900880652,70.18030094167354,34.83638381958008,1.8120938539505005,0.0003283684782218188,1.5641508519183844,36.890873,1.4303955,0.00020460311,33.47270965576172,45.27880859375,3,5,3,5
338,124,128,256,4,159,2539,649984,7149824,2375224,10296,7.308561441512406,3.654280720756203,0.004334749059457129,3.0101683041262635,66.7792661749436,35.108280181884766,1.7562484741210938,0.00030844082357361913,1.576615371974185,37.71051,1.3015904,0.00016941376,33.498966217041016,45.17784881591797,3,5,3,5
339,124,141,256,4,159,2539,649984,7149824,2567992,10296,7.173182047994548,3.950854174871997,0.004009358284605248,2.784208050492369,64.08314386480002,36.002384185791016,1.5844579935073853,0.0002510507183615118,1.5692757850047196,37.752377,1.2953322,0.00016778854,33.58246612548828,46.00069808959961,3,5,3,5
340,124,154,256,4,159,2539,649984,7149824,2820600,10296,7.2137000455235984,4.339491433635289,0.003650287172941927,2.534859249805006,60.55007787604282,36.305442810058594,1.5301287174224854,0.00023412938753608614,1.5634582990314811,37.110134,1.3947399,0.00019452992,33.51683044433594,43.94229507446289,3,5,3,5
341,124,167,256,4,159,2539,649984,7149824,2985944,10296,7.042104841125155,4.593873079952737,0.003448155759116715,2.3944936676642294,58.23751745497511,36.68220520019531,1.4651753902435303,0.0002146739134332165,1.5849165730178352,36.637676,1.4727061,0.00021688631,33.37827682495117,44.28760528564453,3,5,3,5
342,124,180,256,4,159,2539,649984,7149824,3226072,10296,7.058929587326594,4.963309866089012,0.003191497275944244,2.216262997230068,54.879001217372625,37.052494049072266,1.4040260314941406,0.0001971289311768487,1.5969223470892757,37.8776,1.2767912,0.00016301958,33.540855407714844,44.93448257446289,3,4,3,5
343,124,192,256,4,159,2539,649984,7149824,3447224,10296,7.071402783247998,5.303552087435999,0.002986751078549001,2.0740816378628137,51.7858901142182,37.71031188964844,1.301620364189148,0.00016942154616117477,1.566790787037462,38.767628,1.1524404,0.0001328119,33.448883056640625,45.77352523803711,3,4,3,6
344,124,205,256,4,159,2539,649984,7149824,3723128,10296,7.153052382827885,5.728030228436392,0.0027654166066812635,1.9203809270054641,47.92699792330553,37.84405517578125,1.281732201576233,0.0001642837596591562,1.6755811229813846,36.667873,1.4675951,0.00021538354,33.216983795166016,44.83614730834961,3,4,3,5
345,200,26,256,4,159,2539,649984,7149824,530936,10296,8.042778804496017,0.8168447223316266,0.019392167794235086,13.466451700393268,92.5741388878943,15.26121711730957,17.25596046447754,0.029776813462376595,1.573009372921661,39.515503,1.0573645,0.000111801965,33.56928253173828,46.31651306152344,3,6,3,5
346,200,39,256,4,159,2539,649984,7149824,794296,10296,8.021490390927177,1.2220239267428121,0.012962422069354497,9.001460412742857,88.89069157506535,14.602397918701172,18.6157283782959,0.034654535353183746,1.5730677670799194,39.281178,1.0862783,0.00011800006,33.36899185180664,46.631500244140625,2,5,3,7
347,200,52,256,4,159,2539,649984,7149824,1062264,10296,8.045747871663586,1.634292536431666,0.009692505817762816,6.730741134030712,85.14279512334849,18.98813819885254,11.235517501831055,0.012623685412108898,1.5891352668404584,38.84223,1.142584,0.00013054982,33.4310188293457,46.96186447143555,2,5,3,6
348,200,64,256,4,159,2539,649984,7149824,1287928,10296,7.925905868452147,1.9814764671130367,0.007994235702616917,5.551415917659994,81.98657757169967,20.66057014465332,9.267688751220703,0.008589005097746849,1.5578633970580995,38.97458,1.1253068,0.00012663155,33.7123908996582,46.80939483642578,2,4,3,6
349,200,77,256,4,159,2539,649984,7149824,1554104,10296,7.9492590906533405,2.390988085860575,0.006625039250912423,4.600608453488312,78.26374467399478,20.764562606811523,9.157392501831055,0.008385783061385155,1.561375913908705,38.19238,1.2313485,0.00015162192,33.480960845947266,46.82314682006836,2,4,3,7
350,200,90,256,4,159,2539,649984,7149824,1818328,10296,7.957323530698876,2.7974965537613232,0.005662344747482302,3.93208706020036,74.56821314762433,23.716754913330078,6.518718719482422,0.004249369725584984,1.564081709831953,38.514797,1.1864787,0.00014077316,33.598358154296875,46.88923263549805,2,4,3,8
351,200,103,256,4,159,2539,649984,7149824,2100344,10296,8.03138610491861,3.231378003150847,0.0049020541397028295,3.4041204678852606,70.6238363349923,25.34172248840332,5.406470775604248,0.0029229926876723766,1.6637091699521989,38.297432,1.2165453,0.00014799826,33.253196716308594,48.14961242675781,1,4,3,8
352,200,116,256,4,159,2539,649984,7149824,2385592,10296,8.09982208580625,3.670231882630957,0.004315909845438784,2.9970858386513703,66.63425561244584,26.53104591369629,4.714630126953125,0.002222773851826787,1.5733651930931956,38.38711,1.2040495,0.00014497351,33.66519546508789,47.43408966064453,1,4,3,8
353,200,128,256,4,159,2539,649984,7149824,2623928,10296,8.07382335565183,4.036911677825915,0.003923888155467681,2.7248552551746847,63.30080292885531,26.664112091064453,4.642953395843506,0.002155701629817486,1.5688681730534881,38.22186,1.2271762,0.00015059614,33.26972579956055,46.54408645629883,1,4,3,7
354,200,141,256,4,159,2539,649984,7149824,2872952,10296,8.025028002871517,4.420034954706577,0.0035837702822741208,2.4886681016598953,59.817864048122026,28.292497634887695,3.849240303039551,0.0014816652983427048,1.5642568578477953,38.631393,1.1706585,0.0001370441,33.25664138793945,46.38105010986328,1,3,3,8
355,200,154,256,4,159,2539,649984,7149824,3108472,10296,7.949934272108356,4.782382335565183,0.003312238295857257,2.3001088637761575,56.523796949407426,28.81121253967285,3.626096248626709,0.0013148573925718665,1.559013341087848,37.542465,1.3270179,0.00017609766,33.66663360595703,48.474281311035156,1,3,3,7
356,200,167,256,4,159,2539,649984,7149824,3359640,10296,7.923436309735786,5.168804155179204,0.0030646140657927634,2.1281518257908587,53.01087131655269,29.790929794311523,3.2393171787261963,0.0010493176523596048,1.5715127589646725,37.469776,1.3381697,0.00017906982,26.808643341064453,47.887813568115234,1,3,4,8
357,200,180,256,4,159,2539,649984,7149824,3593912,10296,7.86379589514682,5.529231488775109,0.0028648447708235483,1.9894265635886466,49.73425919295356,30.270906448364258,3.0651700496673584,0.0009395267115905881,1.5519710378721356,37.47476,1.337402,0.00017886441,33.32358932495117,48.21831512451172,1,3,4,8
358,200,192,256,4,159,2539,649984,7149824,3835224,10296,7.867319810949192,5.900489858211895,0.00268458895751591,1.8642519967542965,46.3591831071646,30.227582931518555,3.0804975032806396,0.0009489464573562145,1.5488089041318747,37.417336,1.3462725,0.00018124498,32.65460205078125,46.490135192871094,1,3,4,8
359,200,205,256,4,159,2539,649984,7149824,4066168,10296,7.812117311405489,6.255797065773927,0.0025321137739512975,1.7583690590255985,43.129117583873395,31.157686233520508,2.7676784992218018,0.0007660044357180595,1.6547632338479161,37.530853,1.3287926,0.00017656897,33.504920959472656,47.52511215209961,1,3,4,8
360,201,26,256,4,159,2539,649984,7149824,471096,10296,7.136304420274487,0.7247809176841276,0.02185541800397371,15.177000016981676,93.41108256650793,17.85051155090332,12.807796478271484,0.016403965651988983,1.5653272210620344,41.112583,0.8797733,7.740011e-05,34.03383255004883,46.09733963012695,3,6,2,4
361,201,39,256,4,159,2539,649984,7149824,699864,10296,7.067834095797861,1.0767403505317055,0.014711429649188985,10.216019112284673,90.21145135880268,16.86631202697754,14.344462394714355,0.020576363429427147,1.571706687100232,40.137287,0.9843187,9.6888325e-05,33.58243942260742,46.412498474121094,3,5,3,4
362,201,52,256,4,159,2539,649984,7149824,962232,10296,7.288090405065592,1.4803933635289483,0.010700122215848153,7.430457519600263,86.54187851337319,21.661273956298828,8.259166717529297,0.006821383256465197,1.5640207279939204,39.76935,1.0269104,0.000105454514,33.278072357177734,46.24831771850586,3,5,3,4
363,201,64,256,4,159,2539,649984,7149824,1146488,10296,7.055484442693974,1.7638711106734934,0.008980469049828695,6.2362833278673655,83.96480808478643,23.38010597229004,6.776331424713135,0.0045918673276901245,1.5639538429677489,39.200573,1.0964057,0.00012021056,33.00635528564453,46.56875991821289,2,5,3,4
364,201,77,256,4,159,2539,649984,7149824,1388280,10296,7.101067502800468,2.1358679598267036,0.007416371337194226,5.150131097473132,80.58301854702997,23.239267349243164,6.88710355758667,0.00474321935325861,1.5730360080488026,36.80452,1.444688,0.00020871233,33.177764892578125,44.638458251953125,2,4,3,5
365,201,90,256,4,159,2539,649984,7149824,1660888,10296,7.268338365935845,2.5552752067743207,0.006199093496972704,4.304820072154173,76.77022539296073,25.84654998779297,5.10120153427124,0.0026022258680313826,1.5559361001942307,37.793007,1.2892871,0.00016622613,33.42526626586914,46.31966781616211,2,4,3,4
366,201,103,256,4,159,2539,649984,7149824,1939128,10296,7.414921400903192,2.9833472823946434,0.005309603079322252,3.6871335981946523,72.87866106913961,27.155067443847656,4.3877973556518555,0.0019252768252044916,1.676955643109977,37.245285,1.3732061,0.00018856951,33.43906784057617,46.394012451171875,2,4,3,5
367,201,116,256,4,159,2539,649984,7149824,2179896,10296,7.401420597302766,3.353768708152816,0.0047231611049334465,3.27989225174045,69.51119356224713,27.753047943115234,4.095883369445801,0.0016776260454207659,1.5810314528644087,38.39787,1.2025592,0.00014461485,33.56359100341797,46.4053840637207,2,4,3,5
368,201,128,256,4,159,2539,649984,7149824,2398808,10296,7.381129381646318,3.690564690823159,0.004292131758773524,2.980573684930182,66.44941190160765,28.128328323364258,3.9226863384246826,0.0015387467574328184,1.571564838988707,37.870716,1.2778037,0.00016327821,33.55011749267578,45.96910095214844,2,4,3,5
369,201,141,256,4,159,2539,649984,7149824,2606488,10296,7.280713074617527,4.010080248129185,0.003950142874243043,2.7430872499700745,63.54472501700741,29.23280143737793,3.454298973083496,0.0011932180495932698,1.5609804729465397,37.313774,1.3624206,0.000185619,33.194915771484375,44.20962905883789,1,4,3,5
370,201,154,256,4,159,2539,649984,7149824,2838424,10296,7.259285023759226,4.36691364710516,0.0036273650448276932,2.518941497112482,60.30078502631673,29.714717864990234,3.2678651809692383,0.0010678942780941725,1.5896526810247453,37.663265,1.3086897,0.00017126687,33.347198486328125,45.27906036376953,1,4,3,5
371,201,167,256,4,159,2539,649984,7149824,3038136,10296,7.165195406744605,4.674170441118551,0.003388920048345433,2.353358769982647,57.50754144437681,29.97504425048828,3.1713757514953613,0.001005762373097241,1.554598462069407,38.197365,1.2306417,0.00015144791,33.027889251708984,47.56355285644531,1,3,3,5
372,201,180,256,4,159,2539,649984,7149824,3279000,10296,7.174740711566233,5.044739562820008,0.003139981701738335,2.180489173528515,54.13873124709084,30.26549530029297,3.06708025932312,0.0009406981989741325,1.5515509638935323,37.259792,1.3709141,0.00018794055,33.25864791870117,48.38509750366211,1,3,3,5
373,201,192,256,4,159,2539,649984,7149824,3506168,10296,7.19231652881712,5.39423739661284,0.002936539264518985,2.039213180885799,50.96147821261055,31.310585021972656,2.7193849086761475,0.0007395054562948644,1.5502109320368618,37.897198,1.2739137,0.00016228564,34.207061767578125,48.231239318847656,1,3,3,6
374,201,205,256,4,159,2539,649984,7149824,3781720,10296,7.265622148147437,5.81817398582119,0.002722570682123478,1.890627545138191,47.10750921980737,31.36643409729004,2.701956033706665,0.0007300566649064422,1.6700023761950438,37.61624,1.3157941,0.00017313141,33.00545120239258,48.36054611206055,1,3,3,5
375,202,26,256,4,159,2539,649984,7149824,497080,10296,7.529917896203836,0.7647572863332021,0.020712963708055043,14.38364850728253,93.04766103333452,19.165203094482422,11.008792877197266,0.012119353748857975,1.5599166098982096,40.502934,0.94374186,8.9064866e-05,33.3017692565918,46.22496795654297,3,6,2,5
376,202,39,256,4,159,2539,649984,7149824,739992,10296,7.473081467567486,1.1384772548247342,0.013913663931501962,9.6620287786895,89.6502067743206,18.488548278808594,11.900699615478516,0.014162665233016014,1.5645962769631299,39.945076,1.0063431,0.00010127264,33.400421142578125,46.42655944824219,3,6,3,5
377,202,52,256,4,159,2539,649984,7149824,993592,10296,7.525615778471233,1.5286407050019692,0.01036240227377032,7.195935555036675,86.10326631816392,23.082956314086914,7.012165546417236,0.004917046520859003,1.5571162467822435,39.257793,1.0892067,0.00011863714,33.63423156738281,46.50399398803711,2,5,3,5
378,202,64,256,4,159,2539,649984,7149824,1225944,10296,7.544456478928712,1.886114119732178,0.008398426029247666,5.83209673525055,82.85350800243475,24.749738693237305,5.787792682647705,0.0033498546108603477,1.5580989569425587,39.078445,1.1119304,0.0001236389,33.36369705200195,46.91767883300781,2,5,3,5
379,202,77,256,4,159,2539,649984,7149824,1474488,10296,7.542022373058214,2.268498916896416,0.006982762830216319,4.849021490849705,79.37728257366895,24.29889488220215,6.0961432456970215,0.0037162965163588524,1.559366030851379,37.677563,1.306537,0.0001707039,33.292057037353516,46.60185241699219,2,5,3,6
380,202,90,256,4,159,2539,649984,7149824,1718904,10296,7.522226598398319,2.644532788499409,0.005989863308247581,4.159524906568372,75.95879283182356,26.86442756652832,4.537101745605469,0.002058529295027256,1.5619172779843207,37.918316,1.2708203,0.00016149844,33.333797454833984,46.96105194091797,2,5,3,6
381,202,103,256,4,159,2539,649984,7149824,1983640,10296,7.585128309058302,3.0518289680976762,0.005190457945998266,3.6043959589441634,72.25610029002112,27.999557495117188,3.981273889541626,0.0015850542113184929,1.6629633540287614,37.397587,1.3493378,0.00018207126,33.111812591552734,46.99283981323242,2,4,3,6
382,202,116,256,4,159,2539,649984,7149824,2242424,10296,7.613722481020223,3.4499679992122885,0.004591459955833509,3.188435371722743,68.63665455261557,28.73334503173828,3.658749580383301,0.0013386448845267296,1.5695459849666802,37.554893,1.3251202,0.00017559437,33.19554901123047,47.76780319213867,1,4,3,7
383,202,128,256,4,159,2539,649984,7149824,2501016,10296,7.695623276880662,3.847811638440331,0.004116726962162577,2.8587677967673937,65.019894195997,29.007238388061523,3.5451769828796387,0.001256828079931438,1.574672891991213,37.620827,1.3150996,0.00017294868,32.98611831665039,46.702110290527344,1,4,3,6
384,202,141,256,4,159,2539,649984,7149824,2755640,10296,7.697339936703734,4.239550512012603,0.003736337112249786,2.5946146811629966,61.458631708976334,30.155765533447266,3.1060726642608643,0.0009647687547840178,1.585378599120304,37.725105,1.2994053,0.00016884544,33.20462417602539,46.680519104003906,1,4,3,6
385,202,154,256,4,159,2539,649984,7149824,3003448,10296,7.681334813276522,4.620802973611658,0.0034280600163545363,2.3805386342630204,57.99270023989402,30.26491355895996,3.0672857761383057,0.0009408242767676711,1.5634297379292548,37.846294,1.2814018,0.00016419902,32.91318130493164,48.3714714050293,1,4,3,8
386,202,167,256,4,159,2539,649984,7149824,3236088,10296,7.632049017365033,4.9787194761717215,0.003181619288474232,2.2094034525637127,54.73891385298435,30.71746063232422,2.911567211151123,0.000847722461912781,1.5645588848274201,38.19776,1.230586,0.0001514342,33.29744338989258,46.57320785522461,1,4,3,7
387,202,180,256,4,159,2539,649984,7149824,3477240,10296,7.608507286333202,5.349731685703032,0.0029609690444145358,2.0561778882101898,51.36607558451789,31.11578941345215,2.781060218811035,0.0007734295795671642,1.5630779948551203,37.352863,1.3563032,0.00018395584,33.37314224243164,47.79024887084961,1,4,3,8
388,202,192,256,4,159,2539,649984,7149824,3697400,10296,7.584596954181436,5.6884477156360775,0.0027846594904527506,1.9337437117974794,48.286838948762934,31.706066131591797,2.5983433723449707,0.0006751389009878039,1.688999661942944,37.49403,1.3344381,0.00017807251,33.10554122924805,47.48914337158203,1,4,4,7
389,202,205,256,4,159,2539,649984,7149824,3939992,10296,7.569701918366171,6.0616753643166605,0.002613203275539646,1.8146798267610695,44.893860324394,31.97019386291504,2.520519971847534,0.000635302159935236,1.5845063431188462,38.116806,1.2421086,0.00015428339,33.47288131713867,48.225990295410156,1,4,3,7
390,203,26,256,4,159,2539,649984,7149824,532888,10296,8.072348289756718,0.8198478731784167,0.019321133146177057,13.417123297953792,92.54683751655985,15.342005729675293,17.096202850341797,0.02922801487147808,1.5670599110890182,39.559986,1.0519634,0.00011066271,33.25376510620117,46.64392852783203,4,6,2,6
391,203,39,256,4,159,2539,649984,7149824,795672,10296,8.03538643318084,1.2241409019298937,0.012940005429372908,8.985893684834958,88.87144634609187,15.175678253173828,17.42673683166504,0.030369117856025696,1.5660590738989413,40.35254,0.9602245,9.220312e-05,32.956787109375,46.21712875366211,3,6,2,6
392,203,52,256,4,159,2539,649984,7149824,1059096,10296,8.021752961493016,1.629418570303269,0.009721498334428607,6.750874330561158,85.18710390633392,19.390108108520508,10.727402687072754,0.011507716961205006,1.5704466528259218,39.520695,1.0567329,0.00011166845,32.96654510498047,46.382198333740234,3,6,3,6
393,203,64,256,4,159,2539,649984,7149824,1302072,10296,8.012948011027964,2.003237002756991,0.007907396825981973,5.491112626644302,81.788754520391,21.1536808013916,8.756204605102539,0.00766711262986064,1.5898592539597303,39.817825,1.021195,0.00010428392,33.336185455322266,46.54220962524414,3,5,3,7
