,record,m,n,d,q,b,w,s,q_mean,q_std,u_bits,c_bits,bpm,bps,cr,pss,snr,prd,nmse,rtime,y_min,y_max,y_range,y_iqr,y_mean,y_std,y_median,y_mad,y_skew,y_kurtosis,y_jbera,y_jb_pval,y_kld
0,100,256,512,4,4,32,1269,649728,-31,15,7147008,1897792,5.841804570527975,2.9209022852639874,3.765959599366,73.44634286123647,24.40247965794562,6.023875912099042,0.0036287081004367627,527.2805428999991,-2073.0,489.0,2562.0,293.0,-490.015317178881,224.44315069490773,-472.0,176.3893466121288,-0.46481880292846806,3.7093852798244424,18509.85129956713,0.0,0.04907159295036663
1,101,256,512,4,4,32,1269,649728,-29,18,7147008,1973152,6.073778565799842,3.036889282899921,3.6221274387376137,72.39191561000072,15.840527974859492,16.14260430455632,0.02605836737334717,602.7661591000019,-5924.0,3723.0,9647.0,323.0,-454.79032456658786,287.0620036969811,-434.0,207.2588663769865,-0.38820823670247007,15.398352739490807,2088902.2291406344,0.0,0.13249929340323235
2,102,256,512,4,4,32,1269,649728,-25,13,7147008,1835744,5.650807722616233,2.8254038613081165,3.893248731849321,74.31451035174439,22.986939701654965,7.0901106822503435,0.005026966948656083,553.3168088,-1669.0,366.0,2035.0,257.25,-393.3674891646966,196.95998885498844,-374.0,154.978992779099,-0.5520424052616266,3.6780490340009755,22723.610913468787,0.0,0.052670881260288155
3,103,256,512,4,4,32,1269,649728,-24,18,7147008,1968064,6.058116627265563,3.0290583136327816,3.631491658807844,72.46310623970199,16.441114235294823,15.064138094025257,0.0226928256515865,529.2500875999976,-6237.0,2587.0,8824.0,302.0,-370.26282998423954,285.9058020559725,-361.0,201.6353343764801,-0.7799244377784375,15.906148338756083,2287608.276227894,0.0,0.1559130893981974
4,104,256,512,4,4,32,1269,649728,-23,15,7147008,1901088,5.851950354609929,2.9259751773049647,3.759430389334949,73.40022566086395,18.45521528963768,11.946460061052019,0.0142717907990312,514.0894925999978,-3087.0,1117.0,4204.0,284.0,-360.07939322301024,231.45441128180434,-337.0,176.9799623563566,-0.6132378559505864,5.040081559843757,76697.35079236048,0.0,0.07147423239615983
5,105,256,512,4,4,32,1269,649728,-23,22,7147008,2036096,6.267533490937747,3.1337667454688733,3.510152762934557,71.51121140482843,13.75633797628762,20.520271435556324,0.04210815397889138,527.1942141000027,-7396.0,6308.0,13704.0,326.0,-360.23066883372735,346.73864825146086,-348.0,228.23985286982955,-0.37532666780965557,22.51542524492931,5162837.540334604,0.0,0.23655660198660766
6,106,256,512,4,4,32,1269,649728,-18,17,7147008,1973920,6.0761426319936955,3.0380713159968478,3.6207181648699036,72.38116985457411,21.205593104304228,8.704029309647336,0.007576012622319757,548.4479901000018,-2577.0,1558.0,4135.0,314.0,-284.7167306934594,270.5854576201472,-276.0,204.3326189622628,-0.09293995842178752,4.434182262572845,28309.597911626104,0.0,0.04620885983685716
7,107,256,512,4,4,32,1269,649728,-24,40,7147008,2363104,7.27413317572892,3.63706658786446,3.0244153452408358,66.93575829214127,22.06135843165314,7.887367533110222,0.0062210566602360065,556.0896070999906,-5651.0,3988.0,9639.0,747.0,-372.20626477541373,624.6103829243201,-331.0,475.02317597581595,-0.45816551528983446,4.649941758871025,48214.830864289426,0.0,0.06169564628557322
8,108,256,512,4,4,32,1269,649728,-23,27,7147008,2116448,6.514873916469661,3.2574369582348304,3.3768880690666627,70.38693674331972,11.575418024016132,26.377224688661727,0.06957579822761462,565.6024900999937,-6376.0,6610.0,12986.0,336.0,-365.8647434003152,422.3319544009625,-337.0,259.4593367931078,-0.1613839454322228,22.129512677414777,4954750.39185899,0.0,0.3598946137031391
9,109,256,512,4,4,32,1269,649728,-23,21,7147008,2062528,6.348896769109535,3.1744483845547675,3.465168957706271,71.14137832222939,19.61435118245092,10.453998678868302,0.010928608837778115,484.8609891000051,-3495.0,3992.0,7487.0,389.0,-368.4690947596533,335.49241153579936,-364.0,249.78993412093766,0.18917978437825467,7.327165673731856,255390.73354542677,0.0,0.06416087249750418
10,111,256,512,4,4,32,1269,649728,-17,20,7147008,1999136,6.15376280535855,3.076881402679275,3.5750484209178364,72.02835088473387,13.575737146185983,20.951404548892242,0.04389613525713481,449.6364921999839,-7533.0,4465.0,11998.0,306.0,-262.1284229708432,307.71722395289055,-240.0,210.21421500733976,-0.9112449823097388,23.07262741630869,5498754.2006570045,0.0,0.1970432255933671
11,112,256,512,4,4,32,1269,649728,-83,34,7147008,2298240,7.074468085106383,3.5372340425531914,3.1097744360902255,67.84332688588007,25.40832019667478,5.365176209672972,0.002878511576084158,454.0924092000205,-7656.0,183.0,7839.0,724.0,-1315.8137559101656,538.9277376908087,-1258.0,425.63123427743653,-0.6381538804066031,4.141490498108074,39687.03841144402,0.0,0.08761060673029304
12,113,256,512,4,4,32,1269,649728,-16,22,7147008,2074208,6.384850275807723,3.1924251379038613,3.445656366188926,70.97795329178308,20.892012122907463,9.024006383485172,0.00814326912091845,453.69141920000766,-3471.0,2650.0,6121.0,379.0,-248.30807968873128,336.7051496221329,-245.0,249.67795060152372,-0.05173825652655361,5.1921635097763,65193.27764842763,0.0,0.06432720439069642
13,114,256,512,4,4,32,1269,649728,-16,14,7147008,1841024,5.667060677698975,2.8335303388494877,3.8820830146700964,74.24063328318647,13.868739044940373,20.256436538744087,0.04103232212481681,437.2523865999983,-3076.0,5680.0,8756.0,235.0,-248.74046985815602,219.41975644544718,-227.0,153.34108186629317,1.1519092043194696,30.410770723717285,10242121.753043847,0.0,0.13724604302457694
14,115,256,512,4,4,32,1269,649728,-49,29,7147008,2213664,6.8141252955082745,3.4070626477541373,3.2285875363198753,69.02670320223511,20.886197397772758,9.030049481709792,0.008154179364212744,453.09239450000405,-7954.0,1761.0,9715.0,559.0,-780.7943878053585,461.144499449569,-737.0,349.43247585136663,-0.8161549189442493,6.744015417517266,225808.72764863173,0.0,0.0943231432109291
15,116,256,512,4,4,32,1269,649728,-94,55,7147008,2470688,7.605299448384555,3.8026497241922774,2.892719760649665,65.43045705279748,15.552223811403609,16.687405119740024,0.027846948963032577,429.58206259999315,-18332.0,16751.0,35083.0,930.0,-1498.0884308510638,874.8566894731678,-1439.0,603.4236147296892,-0.2862613095828877,22.704953212487347,5260265.070630128,0.0,0.21840231237003227
16,117,256,512,4,4,32,1269,649728,-86,36,7147008,2317376,7.1333727344365645,3.5666863672182822,3.084095114474302,67.5755784798338,25.408404676118135,5.3651240279259715,0.0028784555835028743,437.9860062000125,-8762.0,417.0,9179.0,748.0,-1363.02152285264,560.0548319950996,-1302.0,441.87730387902434,-0.6977582772753038,4.384825638515303,52319.46229815267,0.0,0.09794798790079576
17,118,256,512,4,4,32,1269,649728,-86,39,7147008,2356768,7.25462962962963,3.627314814814815,3.032546266751755,67.02441077441077,23.518240372199962,6.669418677049423,0.004448114548977471,425.3592140999717,-7221.0,3714.0,10935.0,809.0,-1373.0560234436564,613.8832816549324,-1305.0,482.1013768142142,-0.5467136781762835,4.372342207165487,41676.07861665683,0.0,0.09959447705842625
18,119,256,512,4,4,32,1269,649728,-87,40,7147008,2372736,7.303782505910165,3.6518912529550827,3.0121378863893833,66.80098860949924,25.98137245562678,5.022632207443122,0.0025226834291245085,425.241040999952,-6982.0,1381.0,8363.0,825.0,-1378.0560726950355,628.9658172991057,-1317.0,494.72616912741324,-0.5738786261002784,3.804618555932709,26594.960640456924,0.0,0.07446078927076907
19,121,256,512,4,4,32,1269,649728,-81,40,7147008,2351328,7.237884160756501,3.6189420803782504,3.0395623239292857,67.1005265420159,19.84140021688336,10.184271983205926,0.010371939582791373,422.5808665000004,-15476.0,1536.0,17012.0,763.0,-1295.5078555949567,635.2348684705878,-1227.0,472.7403312793014,-1.3687468731612604,13.123607838733907,1488706.9808056091,0.0,0.15538840020286163
20,122,256,512,4,4,32,1269,649728,-85,35,7147008,2315328,7.127068557919622,3.563534278959811,3.0868231196616636,67.60423382763808,25.834375385764687,5.108356884491172,0.002609531005932837,435.8475714999731,-7464.0,406.0,7870.0,747.0,-1349.728797281324,555.1978681906975,-1299.0,440.2174618716297,-0.5540077048477725,3.7330154044933956,23891.171723518444,0.0,0.07949176778670522
21,123,256,512,4,4,32,1269,649728,-80,33,7147008,2279456,7.016646966115051,3.5083234830575254,3.135400727191049,68.1061501540225,25.84766158474699,5.100548960740322,0.0026015599700908915,443.87621369997214,-6194.0,409.0,6603.0,699.0,-1274.2198827817178,514.0864974280868,-1225.0,407.3310724654526,-0.5743806449651551,3.8275243539942894,27132.222444973275,0.0,0.08363051275632792
22,124,256,512,4,4,32,1269,649728,-81,43,7147008,2393536,7.3678092986603625,3.6839046493301812,2.9859621915024466,66.50995773336199,22.540152355838053,7.464356653552972,0.005571662025144127,437.24120630003927,-8290.0,3596.0,11886.0,829.0,-1293.0776078605202,678.9386907463543,-1230.0,516.4280991352427,-0.6043265631485492,5.41817719184741,98926.8179360551,0.0,0.10068488019850289
23,200,256,512,4,4,32,1269,649728,-11,17,7147008,1951424,6.0068951930654055,3.0034475965327028,3.6624577744252402,72.69593094061179,18.434696598300125,11.97471456293602,0.014339378886379477,431.66194910000377,-2468.0,3817.0,6285.0,288.0,-168.80080279747833,261.77056650780617,-150.0,192.07704933647148,-0.25940094409193803,7.714189126437829,304461.65444928984,0.0,0.08037291513245076
24,201,256,512,4,4,32,1269,649728,-16,12,7147008,1756384,5.406520882584712,2.703260441292356,4.069160274746297,75.4249050791604,14.359801411694436,19.142996917740803,0.036645433099263436,464.65926399997807,-4784.0,5202.0,9986.0,196.0,-255.94635293538218,189.45272066755814,-247.0,127.3402104190664,0.7209016492710334,55.09548537385309,36764024.96885308,0.0,0.16099081905674717
25,202,256,512,4,4,32,1269,649728,-17,17,7147008,1928128,5.935185185185185,2.9675925925925926,3.706708268330733,73.02188552188552,15.439255962790837,16.90585741775184,0.028580801502934874,447.7803855999864,-7456.0,3965.0,11421.0,274.0,-270.78137312844757,262.0965656557608,-265.0,182.22956344814727,-0.9846026647974103,32.97747835397592,12216605.175469548,0.0,0.15556164066565886
26,203,256,512,4,4,32,1269,649728,-17,30,7147008,2190656,6.743301812450748,3.371650906225374,3.2624967133132725,69.34862812522387,14.091377118329088,19.743818230544175,0.03898183583207808,447.6042687999761,-6759.0,6612.0,13371.0,455.0,-271.07652433018126,471.68308802145077,-257.0,318.90046609725493,-0.13962294721203025,15.114956987271212,1987763.7802839146,0.0,0.19654399362434768
27,205,256,512,4,4,32,1269,649728,-31,15,7147008,1910208,5.880023640661938,2.940011820330969,3.74148155593527,73.272619815173,22.84390968614621,7.207829678636857,0.005195280867623749,442.22926360006204,-2607.0,650.0,3257.0,301.0,-489.1153836682427,233.63513362916453,-467.0,182.56912778611746,-0.572086744476322,4.098158941095807,34044.204539043174,0.0,0.05904255453427748
28,207,256,512,4,4,32,1269,649728,-18,22,7147008,2041120,6.2829984239558705,3.1414992119779352,3.5015128948812415,71.44091625474604,13.979749225869924,19.999196093555938,0.03999678443884933,453.05198530000234,-6754.0,4646.0,11400.0,344.0,-273.5088775610717,339.06823359581216,-241.0,232.42056055139324,-1.1855120566868025,18.146740293991265,3181575.8457652116,0.0,0.2229840045332558
29,208,256,512,4,4,32,1269,649728,-17,27,7147008,2141600,6.592297084318361,3.2961485421591803,3.3372282405678,70.03501325309836,14.590911699950254,18.64036512493526,0.034746321199089644,503.63389399997686,-5119.0,7330.0,12449.0,410.0,-264.6440479708432,427.3281072062953,-260.0,287.439683599657,0.3765840190128492,16.505340046733526,2476566.4832513756,0.0,0.18336203905128942
30,209,256,512,4,4,32,1269,649728,-17,16,7147008,1935424,5.957643814026793,2.9788219070133963,3.6927350286035514,72.91980084533276,18.046274236960663,12.522362974959561,0.015680957447663797,441.6153261999989,-3026.0,1705.0,4731.0,292.0,-263.60307082348305,249.5982326726706,-242.0,188.30722082342126,-0.5490157900031228,4.888259598666215,64582.931561577716,0.0,0.06473292500195217
31,210,256,512,4,4,32,1269,649728,-16,15,7147008,1876640,5.776694247438928,2.888347123719464,3.80840651376929,73.7422988752776,14.714591301122265,18.376823109391935,0.03377076275938807,430.27524349997657,-2839.0,5070.0,7909.0,249.0,-250.88611849881798,228.25564723378872,-241.0,163.84949491720715,0.4815712370917939,17.216783973199856,2748411.569782602,0.0,0.08715885464561365
32,212,256,512,4,4,32,1269,649728,-16,19,7147008,2005952,6.1747438928289995,3.0873719464144997,3.5629008071977792,71.93298230532272,16.542964259121014,14.888528857934585,0.022166829155355488,451.61935659996925,-4857.0,2375.0,7232.0,336.0,-249.72454934988178,296.8928606098475,-233.0,219.02167358111544,-0.5283719142363148,7.2561203426472085,260314.44216053412,0.0,0.08833930491952229
33,213,256,512,4,4,32,1269,649728,-23,33,7147008,2285024,7.033786446020488,3.516893223010244,3.127760583696276,68.0282434271796,20.768172076504854,9.153588739716872,0.008378818681587264,470.7299680999786,-4031.0,2497.0,6528.0,635.0,-353.4519060283688,523.0691264279807,-337.0,400.8861750907805,-0.1761402147674852,4.02927641068427,16020.010724932385,0.0,0.03917554713589261
34,214,256,512,4,4,32,1269,649728,-17,20,7147008,2048864,6.30683609141056,3.15341804570528,3.4882783825573584,71.33256322086109,23.33502595041423,6.811593187825288,0.004639780175642962,461.5592028000192,-2560.0,1688.0,4248.0,369.0,-257.8139529156816,315.2518499630907,-266.0,239.18660819360653,0.16123742819935966,4.123965895355177,18507.628870777186,0.0,0.04033059230549122
35,215,256,512,4,4,32,1269,649728,-16,14,7147008,1861888,5.731284475965327,2.8656422379826636,3.8385810532105045,73.94870692743034,18.639143024108403,11.69614783025569,0.01367998740671911,457.4921310999598,-2141.0,1403.0,3544.0,256.0,-243.03294917257682,208.6557409574246,-229.0,160.47370099522848,-0.2715005727451264,4.200849114492079,23510.527335263923,0.0,0.03945292596472985
36,217,256,512,4,4,32,1269,649728,-17,29,7147008,2205760,6.7897951142632,3.3948975571316,3.2401566806905557,69.13729493516728,18.593529516889937,11.75773111432559,0.013824424095677973,464.76276279999,-5918.0,6010.0,11928.0,528.0,-264.2084934003152,458.7210740260612,-230.0,340.25454526026755,-0.3029312922886717,8.501771797570289,414696.50842888386,0.0,0.08883973366563554
37,219,256,512,4,4,32,1269,649728,-59,43,7147008,2404320,7.401004728132388,3.700502364066194,2.9725693751247753,66.35906941758006,22.52558784182627,7.476883398548156,0.0055903785355485005,543.8350355001712,-6750.0,3977.0,10727.0,811.0,-938.7689740937747,687.5938266494489,-887.0,520.7592657511625,-0.4287019104876729,4.633609975045899,46074.14627076044,0.0,0.0738777206514247
38,220,256,512,4,4,32,1269,649728,-55,24,7147008,2137824,6.580673758865248,3.290336879432624,3.34312272666038,70.08784655061251,25.129994948988266,5.539878660930897,0.0030690255577837606,575.2413665999011,-3947.0,784.0,4731.0,503.0,-864.7656373128448,378.47918519410126,-834.0,298.7343643891695,-0.47917114487779494,3.6564654601286017,18265.029609532223,0.0,0.05876386259739213
39,221,256,512,4,4,32,1269,649728,-17,15,7147008,1901984,5.854708431836092,2.927354215918046,3.757659370425829,73.38768894619959,22.577226556747856,7.4325642509857435,0.005524301134503254,578.1047925999555,-1875.0,1125.0,3000.0,270.0,-262.37740100472814,228.02510289231657,-255.0,173.67677100061792,-0.13149954026377864,4.101084540203297,17347.13769846333,0.0,0.036270124908285635
40,222,256,512,4,4,32,1269,649728,-16,14,7147008,1860032,5.725571315996848,2.862785657998424,3.842411313353749,73.97467583637797,18.565448627118393,11.795804569708954,0.013914100544676719,574.5554621999763,-3362.0,965.0,4327.0,252.0,-250.44358254531127,212.0531408231468,-226.0,160.6321980291934,-0.7837165702024018,5.710819573150589,132725.75102419205,0.0,0.08476037818627549
41,223,256,512,4,4,32,1269,649728,-52,27,7147008,2178720,6.706560283687943,3.3532801418439715,3.280370125578321,69.5156350741457,23.470362569929602,6.706282924797143,0.004497423066742467,552.9073362000199,-5754.0,1695.0,7449.0,529.0,-818.3734239558707,419.139327165514,-786.0,323.5841232545801,-0.5849511861343377,4.952335216016008,70120.3290473661,0.0,0.06769397884817208
42,228,256,512,4,4,32,1269,649728,-14,23,7147008,2040800,6.282013396375098,3.141006698187549,3.502061936495492,71.44539365284047,12.796305229491974,22.918423405764184,0.05252541314058745,521.460958800013,-7071.0,4891.0,11962.0,294.0,-221.54591459810874,356.8663096595709,-206.0,221.4384426003491,-0.9702705908469564,23.961674324523717,5998579.792291181,0.0,0.35351717460348353
43,230,256,512,4,4,32,1269,649728,-17,18,7147008,1981344,6.098995271867612,3.049497635933806,3.6071515092785504,72.27729421878358,17.942134407411064,12.673404005688141,0.016061516909139435,526.6483635999466,-4824.0,2220.0,7044.0,308.0,-271.78070823483057,285.26222582194305,-261.0,206.64648263868827,-0.40452185188454426,8.629547599225143,437840.30035234045,0.0,0.10421954654046428
44,231,256,512,4,4,32,1269,649728,-16,15,7147008,1902176,5.855299448384555,2.9276497241922774,3.75728008344128,73.38500250734293,22.251636762154877,7.716460935059407,0.005954376936229841,503.43459920001624,-2156.0,1094.0,3250.0,278.0,-253.10206117021278,228.9469107847374,-239.0,175.2200738190911,-0.33945376480268474,4.211531453112529,26107.206651326476,0.0,0.04202890257852096
45,232,256,512,4,4,32,1269,649728,-16,13,7147008,1825344,5.618794326241135,2.8093971631205674,3.9154307352477122,74.46002578981303,20.706266121508527,9.219061113174584,0.008499108780844802,548.964238599965,-1825.0,1126.0,2951.0,243.0,-242.22530043341214,191.91363499355253,-228.0,149.21733793324987,-0.4217619586236069,3.9842441472094237,22744.123082885442,0.0,0.03870863094026529
46,233,256,512,4,4,32,1269,649728,-16,27,7147008,2174240,6.692769897557132,3.346384948778566,3.2871292957539184,69.57831864746758,19.143261685456032,11.036640991947543,0.012180744438513504,571.4834099998698,-4852.0,4784.0,9636.0,480.0,-245.9422281323877,427.17406257281147,-232.0,314.5660003137657,-0.12762311884785582,6.467151235475114,163599.9988553793,0.0,0.08255954947607246
47,234,256,512,4,4,32,1269,649728,-17,22,7147008,2034016,6.261130811662727,3.1305654058313634,3.5137422714472257,71.54031449244215,13.589258264434056,20.918815366677254,0.043759683634511964,583.2481555999402,-6729.0,5273.0,12002.0,316.0,-257.23010244286843,345.05600721387196,-248.0,225.5520090486863,-0.6561550779404491,19.7810901303663,3835116.2199482373,0.0,0.2527996199435581
