,record,m,n,d,q,b,w,s,q_mean,q_std,u_bits,c_bits,bpm,bps,cr,pss,snr,prd,nmse,rtime,y_min,y_max,y_range,y_iqr,y_mean,y_std,y_median,y_mad,y_skew,y_kurtosis,y_jbera,y_jb_pval,y_kld
0,100,200,512,4,6,32,1269,649728,-10,4,7147008,1010016,3.979574468085106,1.5545212765957446,7.076133447390933,85.86798839458415,20.123434996950795,9.858895201403238,0.009719781459225162,395.77287940000025,-2021.0,432.0,2453.0,331.0,-627.2196059889677,244.01277891484617,-620.0,194.69475145190972,-0.20001527346162992,3.1508811578876554,1932.9996210818344,0.0,0.01310057962157915
1,101,200,512,4,6,32,1269,649728,-10,6,7147008,1108032,4.365768321513002,1.7053782505910164,6.450181944203777,84.49656135826349,15.141018320024564,17.49641551379369,0.03061245558313244,416.35885389999845,-8090.0,4225.0,12315.0,384.0,-582.1316154452325,333.03110966527197,-570.0,240.18704221760828,-0.15039319841240992,18.131543324437473,2422246.8519640407,0.0,0.12050710210825859
2,102,200,512,4,6,32,1269,649728,-8,4,7147008,978848,3.856769109535067,1.5065504334121356,7.301448233024944,86.30408696898058,18.52503508889363,11.85081573779294,0.014044183365112076,409.9957983999975,-1768.0,365.0,2133.0,297.0,-503.51038613081164,218.2670797563346,-491.0,174.39627126865818,-0.32195257212171374,3.1554162485461665,4639.972076882935,0.0,0.019137814481916725
3,103,200,512,4,6,32,1269,649728,-8,6,7147008,1105120,4.354294720252167,1.7008963750985027,6.467178224989142,84.5373056809227,15.66780371757527,16.46682287778308,0.02711562556882825,404.6966862000015,-6208.0,2614.0,8822.0,360.0,-473.93642237982664,332.16450884354447,-470.0,233.5980551985545,-0.7549240459041996,17.188356639847402,2152954.789603301,0.0,0.167609499133608
4,104,200,512,4,6,32,1269,649728,-8,5,7147008,1049856,4.136548463356974,1.615839243498818,6.80760790051207,85.31055233182893,16.301728885217965,15.307827362982332,0.023432957857487346,408.0896102000029,-3077.0,1398.0,4475.0,334.0,-460.9016233254531,266.1062226678025,-442.0,205.2178020217539,-0.4280975296311688,4.644270309517004,36343.04783004583,0.0,0.04643883189563897
5,105,200,512,4,6,32,1269,649728,-8,7,7147008,1159648,4.569141055949567,1.7848207249802994,6.163083970308231,83.77435704563364,13.367372878619985,21.46008096112245,0.04605350748579244,413.25967370000944,-6844.0,6901.0,13745.0,384.0,-461.095256107171,411.0119030441096,-452.0,266.3628095796764,-0.22724289925271043,23.97770217856393,4655861.024304992,0.0,0.258733279425207
6,106,200,512,4,6,32,1269,649728,-6,5,7147008,1094400,4.3120567375886525,1.6843971631205674,6.530526315789474,84.68729851708575,18.472188027164904,11.923138770785664,0.014216123814740963,413.03329419999955,-2557.0,1919.0,4476.0,383.0,-364.437415287628,312.67763980660817,-357.0,240.12348022337423,-0.03961444731376058,4.0848848019709445,12512.892557406918,0.0,0.02864292834923197
7,107,200,512,4,6,32,1269,649728,-8,12,7147008,1407648,5.54628841607565,2.166518912529551,5.077269317329332,80.30437352245863,20.728367466430964,9.19563292665683,0.008455966492181404,379.999394100003,-7323.0,3561.0,10884.0,901.0,-476.42401891252956,741.5873444302476,-435.0,567.312097802865,-0.3909508906403169,4.303454359755745,24432.09574189411,0.0,0.05109873351908188
8,108,200,512,4,6,32,1269,649728,-8,9,7147008,1243648,4.900110323089047,1.9141055949566588,5.746809386578839,82.59904004584855,11.667844213961663,26.098033802824517,0.06811073683733639,354.06329409999944,-7987.0,7892.0,15879.0,403.0,-468.3068715524035,518.3445701605625,-445.0,315.28402598689013,0.025224062163632002,21.295204150921798,3539632.6973354067,0.0,0.3666477246143779
9,109,200,512,4,6,32,1269,649728,-8,7,7147008,1172288,4.618944050433412,1.8042750197005517,6.096631544466889,83.59749982090408,18.99161844346236,11.231016824273327,0.01261357389071106,352.97323660001075,-3743.0,4791.0,8534.0,455.0,-471.6404412923562,384.10421953730344,-470.0,287.11621250561575,0.3318404943568109,8.174710577650997,287831.428832239,0.0,0.06005039975304384
10,111,200,512,4,6,32,1269,649728,-6,6,7147008,1130016,4.4523877068557915,1.7392139479905437,6.324696287486195,84.18896410917688,12.72098035554708,23.11803847690012,0.05344437030194256,348.3829550999849,-8427.0,4489.0,12916.0,381.0,-335.5243814026793,375.49045871649474,-316.5,257.61041073390487,-0.7572639669175777,22.22544927708107,3932966.1721714307,0.0,0.18617551970440507
11,112,200,512,4,6,32,1269,649728,-27,10,7147008,1325632,5.223136327817179,2.0402876280535853,5.391396707381838,81.45193065405832,25.40775977848334,5.365522384846025,0.002878883046228333,354.0234137999869,-7745.0,251.0,7996.0,776.0,-1684.241607565012,578.89097209953,-1672.0,459.1047705998068,-0.28632638737577215,3.744447224938824,9328.555112408703,0.0,0.030962375666810656
12,113,200,512,4,6,32,1269,649728,-5,7,7147008,1189792,4.6879117415287626,1.831215524034673,6.006939027998171,83.35258614513934,18.976475310050343,11.25061425566596,0.01265763211297884,341.90067139998155,-3049.0,2909.0,5958.0,463.0,-317.83434200157603,401.59515641033545,-316.0,300.82969925836187,0.02299412555055941,4.882907141283942,37514.32839698808,0.0,0.05316930439321028
13,114,200,512,4,6,32,1269,649728,-5,5,7147008,1030176,4.0590070921985815,1.5855496453900708,6.937657254682695,85.58591231463572,13.175155888517839,21.9402820142352,0.04813759748641786,340.68211820000124,-3099.0,5598.0,8697.0,290.0,-318.3878014184397,264.8761555508498,-300.0,185.5554809450097,1.4763843926370832,30.74735601222214,8234060.991954663,0.0,0.11211740736164139
14,115,200,512,4,6,32,1269,649728,-16,9,7147008,1285536,5.0651536643026,1.9785756501182032,5.559554924949593,82.01294863528906,20.163050843896507,9.814031730661613,0.009631521881043178,340.6362112999914,-7636.0,2156.0,9792.0,662.0,-999.4168163908589,532.9321299267798,-973.0,406.3501889836709,-0.5943615762748594,6.420471151822505,138666.65057804532,0.0,0.06772272701420237
15,116,200,512,4,6,32,1269,649728,-30,16,7147008,1474528,5.809802994483846,2.2694542947202523,4.846980186201957,79.36859732072499,15.026714278841501,17.728185447659584,0.031428855926661434,344.7236829000258,-19387.0,14651.0,34038.0,1042.0,-1917.5531914893618,1011.2933391580993,-1898.0,679.2001834245989,0.040076363338158144,26.118993386427096,5652277.007417755,0.0,0.23073314133630912
16,117,200,512,4,6,32,1269,649728,-28,10,7147008,1336672,5.266635145784082,2.057279353821907,5.346867443920424,81.29746041980084,25.359331008507663,5.395521774889195,0.0029111655223303208,338.8936935999782,-8573.0,577.0,9150.0,809.0,-1744.6675492513791,602.6998816080074,-1724.0,478.44877003804385,-0.37585113858662156,3.985378923180348,16243.495420614427,0.0,0.03684368376447682
17,118,200,512,4,6,32,1269,649728,-28,11,7147008,1373120,5.410244286840031,2.1133766745468874,5.204940573292939,80.78748477684648,22.649729121291465,7.370781615460893,0.0054328421622817325,352.24055950000275,-6239.0,4542.0,10781.0,893.0,-1757.5117100078803,670.9759861832283,-1726.0,528.5426201151085,-0.19767872488594132,4.308596451146137,19761.84285682328,0.0,0.045608741692413995
18,119,200,512,4,6,32,1269,649728,-28,11,7147008,1383712,5.451977935382191,2.1296788810086684,5.16509793945561,80.6392828999212,24.660434930142674,5.8476080257660925,0.0034194519623004216,344.4782994999796,-7160.0,2327.0,9487.0,923.0,-1763.9117730496455,685.6371144343162,-1739.0,544.7578130119132,-0.30001432789856713,3.347384853920438,5083.514854204246,0.0,0.029189892455731826
19,121,200,512,4,6,32,1269,649728,-26,12,7147008,1383808,5.4523561859732075,2.129826635145784,5.164739617056702,80.63793968049288,20.070933011141946,9.91866790283244,0.00983799729666792,340.12047410000196,-16317.0,1624.0,17941.0,849.0,-1658.2500551615444,719.1092147159328,-1628.0,529.6080990802215,-1.230640857597145,14.514969504978557,1466249.4512910869,0.0,0.1280970107691043
20,122,200,512,4,6,32,1269,649728,-27,10,7147008,1332992,5.252135539795114,2.0516154452324664,5.361628576915691,81.34895049788666,25.253253852761045,5.46181904359747,0.002983146726500396,365.1481322000218,-7122.0,301.0,7423.0,809.0,-1727.6528605200945,590.1115490549728,-1715.0,473.2277932982925,-0.21906274972888423,3.1791933738695644,2369.4791107842443,0.0,0.026010501573831734
21,123,200,512,4,6,32,1269,649728,-26,9,7147008,1301632,5.128573680063042,2.003349093774626,5.490805388927131,81.78773551113977,25.0590078351055,5.585339908696932,0.003119602189568193,375.88614069999403,-6348.0,379.0,6727.0,746.0,-1631.0014499605988,545.5842649022868,-1623.0,436.4558804344631,-0.23687672022984307,3.3393366645524747,3591.182166767649,0.0,0.030105562816944938
22,124,200,512,4,6,32,1269,649728,-26,13,7147008,1421056,5.599117415287628,2.18715524034673,5.029364078544407,80.11677054230246,23.198645303418687,6.919388808948791,0.004787794148940465,392.1921958000203,-8056.0,4181.0,12237.0,952.0,-1655.1393380614657,773.4424030588791,-1624.0,588.1366519111665,-0.2847797978444018,5.170977440959262,53271.99800171443,0.0,0.06886431575882401
23,200,200,512,4,6,32,1269,649728,-4,5,7147008,1079328,4.252671394799054,1.6611997635933806,6.621720181446233,84.8981839673329,16.635625563041273,14.730541835473021,0.02169888627666177,381.40203869999095,-2730.0,4638.0,7368.0,348.0,-216.06502758077227,306.26659906135507,-198.0,226.90937835198628,-0.10514857861804028,8.157945217647566,281809.1962894418,0.0,0.06422414185172044
24,201,200,512,4,6,32,1269,649728,-6,4,7147008,942048,3.71177304964539,1.4499113475177305,7.586670742892082,86.81898774983881,13.472044007876592,21.20302374001283,0.04495682157195452,382.85641450001094,-4782.0,6031.0,10813.0,232.0,-327.6113317572892,221.55617464614141,-325.0,146.94992857333355,1.1280469613934871,63.60660607650399,38897500.72845272,0.0,0.1730485845196638
25,202,200,512,4,6,32,1269,649728,-6,5,7147008,1059744,4.175508274231679,1.6310579196217494,6.744089138508923,85.17220073071137,14.395494045721708,19.064494648462496,0.03634549562012525,410.3802816000116,-8546.0,3866.0,12412.0,336.0,-346.6001576044129,310.3093276733849,-345.0,216.26251628173793,-0.9890003893792413,36.01816757631004,11570233.101157995,0.0,0.1580352649656106
26,203,200,512,4,6,32,1269,649728,-6,9,7147008,1278624,5.037919621749409,1.967937352245863,5.589608829491704,82.10966043412851,13.237757655209872,21.782720413594795,0.04744869086168527,389.20910920004826,-7570.0,7983.0,15553.0,556.0,-346.977951142632,574.6970248054719,-335.0,389.3003784641245,-0.0381498663093655,14.535094449726193,1407154.1858606657,0.0,0.19832000418927165
27,205,200,512,4,6,32,1269,649728,-10,5,7147008,1043968,4.113349093774626,1.6067769897557131,6.846002942618931,85.39293645676625,20.002336061569363,9.997310871362506,0.009994622465866233,433.1813220999884,-2859.0,708.0,3567.0,343.0,-626.0676910953507,257.2939874811407,-616.0,203.49395733254022,-0.3053680283269049,3.564330582513614,7312.269206494893,0.0,0.021731178841332424
28,207,200,512,4,6,32,1269,649728,-6,7,7147008,1168288,4.603183609141056,1.798118597320725,6.117505272672492,83.65346729708432,13.583968528881295,20.931558874533245,0.04381301569180362,433.04292590002296,-7461.0,4583.0,12044.0,419.0,-350.0913632781718,409.79877802798717,-321.0,280.6466165930261,-1.0509563878615424,17.770402466786432,2353813.3886258556,0.0,0.21603217684448361
29,208,200,512,4,6,32,1269,649728,-6,9,7147008,1254816,4.944113475177305,1.9312943262411348,5.695662152857471,82.44277885235331,14.441999192029316,18.962694152029847,0.035958376950341674,420.35176839999076,-5325.0,8347.0,13672.0,492.0,-338.74438140267927,515.443658994409,-334.0,344.52407636950556,0.5091312913549619,16.671700173041053,1987594.9835663834,0.0,0.1952146664753136
30,209,200,512,4,6,32,1269,649728,-6,5,7147008,1077792,4.24661938534279,1.658835697399527,6.631157032154627,84.91967547818612,15.427704265849938,16.92835612195615,0.028656924099176726,422.8980279000207,-2577.0,1552.0,4129.0,357.0,-337.4119306540583,296.54612139790424,-318.0,226.36217008000088,-0.4135376879679593,4.410776793651296,28281.19667226186,0.0,0.04469939017761215
31,210,200,512,4,6,32,1269,649728,-6,5,7147008,1040352,4.0991016548463355,1.60121158392435,6.869797914551998,85.44353105523318,13.984591552360751,19.98804978022229,0.03995221340166378,384.6853897000565,-2903.0,5260.0,8163.0,302.0,-321.13423167848697,269.0222375758616,-314.0,193.87628074041666,0.7125435127735618,18.6040908942172,2596358.4089113395,0.0,0.07980694121006857
32,212,200,512,4,6,32,1269,649728,-5,6,7147008,1136384,4.477478329393223,1.7490149724192277,6.289254336562289,84.09986388709792,14.723676353056446,18.357611823466243,0.03370019118610787,369.0547853999906,-4197.0,3142.0,7339.0,411.0,-319.6474231678487,355.45410410437745,-303.0,264.1952261843495,-0.43027441542464767,6.8460118390622,164254.6155948045,0.0,0.07855146383970807
33,213,200,512,4,6,32,1269,649728,-8,10,7147008,1347776,5.310386130811663,2.074369582348306,5.302815898190797,81.14209470592449,18.18549989795263,12.32324279443337,0.015186231297056192,326.98089879996405,-4512.0,2778.0,7290.0,785.0,-452.41843971631204,621.9713131309393,-435.0,483.88772686372056,-0.1173608516847478,3.632119233454286,4808.124710273035,0.0,0.026163089488579292
34,214,200,512,4,6,32,1269,649728,-6,6,7147008,1153728,4.545815602836879,1.775709219858156,6.1947079380928605,83.8571889103804,20.77354341492662,9.147929926897794,0.008368462194743262,340.1757838000012,-2559.0,1997.0,4556.0,446.0,-330.0018597320725,365.4531642179936,-341.0,281.13047810348513,0.2090395683024251,3.906209969834048,10532.770576396086,0.0,0.028532491582528498
35,215,200,512,4,6,32,1269,649728,-5,4,7147008,1003264,3.9529708431836093,1.5441292356185974,7.123756060219444,85.96246149437638,15.364104158568656,17.052764406262558,0.029079677389549835,338.57033270000284,-1747.0,1722.0,3469.0,305.0,-311.08217494089837,240.165500065468,-300.0,186.7901181437157,-0.16446550814868433,3.8444006022158765,8684.274499589896,0.0,0.02332474214994143
36,217,200,512,4,6,32,1269,649728,-6,9,7147008,1287456,5.072718676122931,1.98153073286052,5.5512638878532545,81.98608424672254,17.703255128028474,13.026784945665806,0.016969712602062648,337.51864389997354,-6727.0,6795.0,13522.0,639.0,-338.1868715524035,546.4121129765149,-304.0,406.3521932573855,-0.19103496806590442,8.612753138588534,334687.91306603997,0.0,0.08455085673987446
37,219,200,512,4,6,32,1269,649728,-19,13,7147008,1441696,5.680441292356186,2.218922379826635,4.957361329989124,79.8279783652124,22.323476234971004,7.652902639442233,0.005856691880878063,337.55765559998144,-6347.0,4028.0,10375.0,982.0,-1201.6242868400316,815.9859653960781,-1170.0,622.1906940167562,-0.16448312242449428,4.198160337159562,16325.75885360421,0.0,0.05066054569512281
38,220,200,512,4,6,32,1269,649728,-18,7,7147008,1198176,4.720945626477541,1.8441193853427895,5.964906658120343,83.23527831506554,22.911494648152697,7.151963141293274,0.005115057677441917,353.79856880000625,-3976.0,752.0,4728.0,557.0,-1106.9000157604412,406.0181261967407,-1099.0,325.2190853486646,-0.17564408601263015,3.1005153418552065,1411.8334979392218,2.6561416959265663e-307,0.017512678484947645
39,221,200,512,4,6,32,1269,649728,-6,5,7147008,1049888,4.1366745468873125,1.6158884948778567,6.807400408424518,85.31010459201948,19.3903390455709,10.727117747183671,0.011507105516194265,337.12688639996486,-2107.0,1197.0,3304.0,330.0,-335.843073286052,263.5553726893714,-331.0,204.53935272575663,-0.055553856364008114,3.7283425410968447,5740.4037840650635,0.0,0.01782302047973993
40,222,200,512,4,6,32,1269,649728,-6,4,7147008,1019008,4.015003940110323,1.568360914105595,7.013691747267931,85.74217350813096,15.516046724961319,16.757053790303555,0.028079885173112277,327.48711059999914,-3266.0,1216.0,4482.0,313.0,-320.5677856579984,254.86956110321478,-298.0,195.378201523257,-0.5932026717771387,5.02693986474446,58332.15318638436,0.0,0.05683009924185011
41,223,200,512,4,6,32,1269,649728,-17,8,7147008,1241920,4.893301812450749,1.9114460204885737,5.754805462509663,82.62321799555842,21.978032075093452,7.963397532756895,0.006341570026471858,328.8411557999625,-6127.0,1852.0,7979.0,603.0,-1047.5179826635147,466.0635344423522,-1031.0,362.2379522476511,-0.3952502948494899,4.860282271244419,43204.599364044196,0.0,0.04313063843518554
42,228,200,512,4,6,32,1269,649728,-5,7,7147008,1163968,4.586162332545311,1.7914696611505123,6.140210040138561,83.71391217135898,12.176441216513389,24.613758727243447,0.06058371186829531,336.3473343000205,-7093.0,5343.0,12436.0,362.0,-283.5787706855792,436.25902862831543,-271.0,269.9140175110677,-0.8609956123450196,22.3958637452775,4009667.5929496814,0.0,0.3658758621976084
43,230,200,512,4,6,32,1269,649728,-6,6,7147008,1118336,4.406367218282112,1.72123719464145,6.390751974361909,84.35238913962318,16.71526458707036,14.596098001258042,0.021304607686233202,329.2162051000032,-5334.0,2342.0,7676.0,371.0,-347.8793065405831,335.92162770744386,-340.0,244.227073906026,-0.3367556648635706,8.864341258315035,368476.5256979848,0.0,0.10162408307036375
44,231,200,512,4,6,32,1269,649728,-6,5,7147008,1055520,4.158865248226951,1.6245567375886525,6.771077762619372,85.23130238555771,18.636037634618777,11.70033019839632,0.013689772675150232,358.88183380000555,-2287.0,1144.0,3431.0,341.0,-323.9706382978723,268.7226779270513,-312.0,209.13495116273072,-0.19585795046543458,3.757517353687816,7690.921367506398,0.0,0.021420609027494146
45,232,200,512,4,6,32,1269,649728,-5,4,7147008,990432,3.9024113475177304,1.5243794326241136,7.216051177667927,86.1420051579626,16.427890198140467,15.087090313331833,0.022762029412262404,355.4413671999173,-2116.0,1135.0,3251.0,302.0,-310.04838455476755,228.73847804032997,-301.0,180.473350661121,-0.18656755763654237,3.4888526082785085,3999.535713656163,0.0,0.015452169529022196
46,233,200,512,4,6,32,1269,649728,-5,8,7147008,1258624,4.959117415287628,1.9371552403467298,5.678429777280586,82.38949781502973,17.41349351579586,13.468688978122065,0.018140558278938592,369.8441922000129,-4636.0,4503.0,9139.0,579.0,-314.80605200945627,507.56000343343413,-303.0,375.7541817683403,-0.029334063080982433,6.309647263483826,115872.4635778185,0.0,0.07862722216046705
47,234,200,512,4,6,32,1269,649728,-6,7,7147008,1164032,4.586414499605989,1.7915681639085894,6.139872443369255,83.7130166917401,13.144248377773476,22.018492474985408,0.04848140108710047,376.75638839995736,-7005.0,5301.0,12306.0,391.0,-329.25453112687154,417.52543227785713,-319.0,273.1518260875172,-0.5694726645337387,19.15714747427695,2774357.710988066,0.0,0.2641764993330319
