,record,m,n,d,q,b,w,s,q_mean,q_std,u_bits,c_bits,bpm,bps,cr,pss,snr,prd,nmse,rtime,y_min,y_max,y_range,y_iqr,y_mean,y_std,y_median,y_mad,y_skew,y_kurtosis,y_jbera,y_jb_pval
0,100,128,512,4,8,32,1269,649728,-4,1,7147008,395296,2.4336091410559497,0.6084022852639874,18.080142475512023,94.46907013396375,34.07937844990449,1.977111114351802,0.0003908968358493478,193.64439470000002,-3089.0,489.0,3578.0,409.0,-980.030634357762,308.5474665067829,-972.0,244.50057242117526,-0.1262849994921653,3.1926030909346252,682.8069724059261,5.37464568703467e-149
1,101,128,512,4,8,32,1269,649728,-4,2,7147008,457280,2.8152088258471237,0.7038022064617809,15.629391182645206,93.60179812307472,33.07069720998503,2.220573432497485,0.0004930946369113651,195.37459820000052,-9477.0,4839.0,14316.0,509.0,-909.5806491331757,461.91324719293965,-900.0,324.14480350497297,0.08262339195564843,20.88508545015745,2165107.4839834934,0.0
2,102,128,512,4,8,32,1269,649728,-4,1,7147008,385696,2.374507486209614,0.5936268715524035,18.53015846677176,94.60339207679633,34.124775476947924,1.9668046488972004,0.00038683205269235237,196.7773812000005,-2321.0,568.0,2889.0,378.0,-786.7349783293932,284.83577741280885,-775.0,226.1085902478057,-0.23719211682456878,3.149826355961022,1675.0010720945672,0.0
3,103,128,512,4,8,32,1269,649728,-3,2,7147008,459008,2.825847123719464,0.706461780929866,15.570552147239264,93.57762017336485,32.38786760597445,2.402185934393306,0.0005770497263396941,193.7617229000016,-7938.0,3177.0,11115.0,477.0,-740.5256599684791,460.30187776510013,-739.0,313.9350105039774,-0.8355878001713406,20.82342877196254,2168923.6412050943,0.0
4,104,128,512,4,8,32,1269,649728,-3,1,7147008,424992,2.6164302600472813,0.6541075650118203,16.81680596340637,94.05356759080163,32.72643368738427,2.310352864855819,0.0005337730360147483,196.7129217999991,-3837.0,1770.0,5607.0,444.0,-720.1587864460205,360.4097442912212,-701.0,275.84857010515816,-0.3064721914953619,4.852778154131653,25775.84478789599,0.0
5,105,128,512,4,8,32,1269,649728,-3,2,7147008,477792,2.9414893617021276,0.7353723404255319,14.958408679927667,93.31479690522244,30.233139384736443,3.078527452749893,0.0009477331277334655,189.84375070000328,-9079.0,7901.0,16980.0,505.0,-720.4613376674547,571.7032326526936,-715.0,358.5820276654203,-0.03756956541088571,27.977494661820202,4222425.832862566,0.0
6,106,128,512,4,8,32,1269,649728,-3,2,7147008,460320,2.8339243498817965,0.7084810874704491,15.526173096976017,93.55926284117774,33.40569389705817,2.13656104166348,0.00045648930847541505,187.74227049999922,-3053.0,2311.0,5364.0,524.0,-569.4334613869188,417.853227864179,-561.0,323.8700525542136,-0.029835740895347657,3.8099387525037054,4463.912019121736,0.0
7,107,128,512,4,8,32,1269,649728,-3,4,7147008,654656,4.030338849487785,1.0075847123719464,10.91719620686284,90.84013897843685,29.42116909708868,3.380193366618964,0.0011425707195734773,188.85379060000173,-8413.0,4517.0,12930.0,1247.0,-744.4125295508275,1033.8892641818436,-700.0,788.0956207229656,-0.33188832583802075,4.318002641104614,14738.87938286055,0.0
8,108,128,512,4,8,32,1269,649728,-3,3,7147008,555808,3.4217888100866825,0.8554472025216706,12.858771374287524,92.223207249803,31.299915662111516,2.7227277449777194,0.0007413246373271425,196.4523709000016,-9550.0,9086.0,18636.0,562.0,-731.7294868006304,773.5105928512208,-708.0,460.76808889311144,0.23443557693845488,20.123319507739588,1985920.102480958,0.0
9,109,128,512,4,8,32,1269,649728,-3,2,7147008,482400,2.969858156028369,0.7424645390070922,14.815522388059701,93.2503223726628,32.37201958833436,2.4065728928255568,0.0005791593088482728,197.19962109999847,-5408.0,6537.0,11945.0,574.0,-736.9381895193065,499.50350576627363,-737.0,365.73077619755344,0.5472052814798692,11.148092423711796,457443.3308265172,0.0
10,111,128,512,4,8,32,1269,649728,-3,2,7147008,491744,3.027383766745469,0.7568459416863672,14.534001431639227,93.11958234830576,32.852124964890315,2.2771610762136416,0.0005185462567022245,200.08660890000579,-10433.0,5385.0,15818.0,552.0,-524.2568459416864,555.6236060123678,-509.0,378.12085864768596,-0.6408307859865826,21.684884872418987,2373994.9752176674,0.0
11,112,128,512,4,8,32,1269,649728,-11,3,7147008,577440,3.5549645390070923,0.8887411347517731,12.377057356608478,91.92053513862024,32.522728735737,2.365176543254063,0.000559406008075922,198.52903649999507,-9917.0,397.0,10314.0,937.0,-2631.627511820331,732.4773627501307,-2616.0,570.7279359571387,-0.1989337237509701,4.4387031788444,15080.22303870794,0.0
12,113,128,512,4,8,32,1269,649728,-2,2,7147008,514144,3.1652876280535853,0.7913219070133963,13.900790440032365,92.8061644816964,32.393447729460796,2.4006431805856714,0.000576308768049242,200.59558349999725,-4038.0,3670.0,7708.0,642.0,-496.61615937746257,562.5035631758506,-492.0,419.59391838142113,0.03644311329397512,4.987309010666609,26765.473935951,0.0
13,114,128,512,4,8,32,1269,649728,-2,2,7147008,442016,2.72123719464145,0.6803092986603625,16.169116050097735,93.81537001217852,34.715002220485204,1.8375953743772668,0.00033767567599327184,200.87472580000667,-3980.0,6904.0,10884.0,416.0,-497.48093971631204,386.80892257489705,-482.0,267.67600292486077,1.8494158356381314,33.827903878208275,6524629.577719891,0.0
14,115,128,512,4,8,32,1269,649728,-7,3,7147008,575904,3.5455082742316786,0.8863770685579196,12.41006834472412,91.94202664947346,31.719053080015865,2.5944621902789855,0.0006731234056787191,199.55287219999627,-8890.0,2482.0,11372.0,880.0,-1561.588775610717,742.6206451708414,-1541.0,556.1227308581675,-0.5006138231809788,7.08424047572908,119681.7727652483,0.0
15,116,128,512,4,8,32,1269,649728,-12,6,7147008,701280,4.317375886524823,1.0793439716312057,10.191375770020533,90.18778207607996,24.60962483746533,5.881915188701074,0.003459692628707304,198.3687116999954,-23848.0,20010.0,43858.0,1268.0,-2996.1768617021276,1408.9861708403746,-2976.0,881.5576726117052,0.3472818854294875,32.71335692505719,5978621.078441107,0.0
16,117,128,512,4,8,32,1269,649728,-11,3,7147008,585280,3.603230890464933,0.9008077226162332,12.211262985237834,91.81083888530696,32.46699827739137,2.3804007922217565,0.0005666307931610038,198.4041258000084,-10907.0,476.0,11383.0,996.0,-2726.04304570528,764.0891055897474,-2699.0,598.6967646623806,-0.3391380331454591,4.657513026861225,21707.736371558476,0.0
17,118,128,512,4,8,32,1269,649728,-11,3,7147008,610944,3.7612293144208038,0.9403073286052009,11.698302954116908,91.45175155813453,29.887980901147035,3.2033246444328785,0.0010261288777631105,199.20347739999443,-8331.0,5692.0,14023.0,1102.0,-2746.1120468873128,861.8922818643955,-2712.0,669.201947210042,0.039772974647779166,5.405292406635073,39198.625720543685,0.0
18,119,128,512,4,8,32,1269,649728,-11,3,7147008,617280,3.800236406619385,0.9500591016548463,11.578227060653187,91.36309907586504,30.47730440520391,2.9931934055710414,0.0008959206763154219,198.5355096000094,-8546.0,928.0,9474.0,1137.0,-2756.112145390071,864.0199927992069,-2725.0,683.0280899596398,-0.2099577455873341,3.319490975447602,1884.2349091224069,0.0
19,121,128,512,4,8,32,1269,649728,-11,4,7147008,632192,3.89204097714736,0.97301024428684,11.305122494432071,91.15445232466509,31.167983809030794,2.7643995242061212,0.0007641904729431006,200.00226900000553,-19643.0,2402.0,22045.0,1059.0,-2591.0157111899134,986.6133323141815,-2553.0,697.7038907571214,-1.3073839560852878,17.86545136498399,1541876.6605540894,0.0
20,122,128,512,4,8,32,1269,649728,-11,3,7147008,577344,3.554373522458629,0.8885933806146572,12.379115397406052,91.92187835804857,31.647490223690735,2.615926207358592,0.0006843069922345509,199.2299901000024,-8944.0,32.0,8976.0,971.0,-2699.457594562648,726.4980240411791,-2681.0,576.7778457476646,-0.15946549700917736,3.4037805386385513,1791.8665933611458,0.0
21,123,128,512,4,8,32,1269,649728,-10,3,7147008,564640,3.4761623325453113,0.8690405831363278,12.6576367242845,92.09963106239702,32.206066044727805,2.4529951964987475,0.0006017185434046023,202.64331659998606,-7944.0,163.0,8107.0,886.0,-2548.4397655634357,671.8972353723609,-2529.5,530.8345800440229,-0.19234046391428405,3.6942360266854406,4263.454745021187,0.0
22,124,128,512,4,8,32,1269,649728,-11,4,7147008,653760,4.024822695035461,1.0062056737588652,10.93215859030837,90.85267569310122,30.88513510530708,2.8559016327185005,0.0008156174135764492,207.90314450003098,-10323.0,5102.0,15425.0,1217.25,-2586.1552157210403,1060.5572370867508,-2558.0,784.4702755256981,-0.08599746793089237,5.99063247061563,60732.409984753576,0.0
23,200,128,512,4,8,32,1269,649728,-2,2,7147008,452992,2.7888100866824272,0.6972025216706068,15.77733823113874,93.66179525753994,33.6988194426736,2.0656608945127974,0.0004266954931119319,201.94890680000572,-3439.0,5548.0,8987.0,480.0,-337.60160559495665,412.6605404624227,-320.0,306.6059601151738,0.10947293002823621,9.615188451501893,296496.9806847026,0.0
24,201,128,512,4,8,32,1269,649728,-2,1,7147008,352608,2.17080378250591,0.5427009456264775,20.268989926490608,95.0663550397593,34.40980588510262,1.9033107728677656,0.0003622591898114443,198.29075770000964,-5968.0,7004.0,12972.0,305.0,-511.89270587076436,309.4648177815833,-509.0,194.78292144680407,1.552043329726331,81.2365488312943,41491852.930077374,0.0
25,202,128,512,4,8,32,1269,649728,-3,2,7147008,450112,2.7710795902285263,0.6927698975571316,15.87828807052467,93.70209184038971,33.7647228478244,2.0500471872667285,0.00042026934700202187,198.85374019997926,-10176.0,5144.0,15320.0,464.0,-541.5627462568951,436.98794811545054,-541.0,298.151164192325,-1.116736862972256,41.63995243019348,10138696.33658813,0.0
26,203,128,512,4,8,32,1269,649728,-3,3,7147008,578464,3.561268715524035,0.8903171788810087,12.355147424904574,91.90620746471811,29.8603417811971,3.213534086753157,0.0010326801326724505,201.94885309999336,-8681.0,9153.0,17834.0,804.0,-542.1530486603625,836.3514465082218,-534.5,561.9981055698468,0.06574273161145028,14.64583741952694,918030.5897137002,0.0
27,205,128,512,4,8,32,1269,649728,-4,1,7147008,411712,2.5346729708431837,0.6336682427107959,17.359241411472098,94.23937961172004,33.58229586557201,2.093559010487717,0.0004382989330394407,198.49156420000872,-3206.0,771.0,3977.0,432.0,-978.2307673364854,333.5476925997986,-968.0,261.12208464594556,-0.21495094435668122,3.671681685995682,4304.257962825882,0.0
28,207,128,512,4,8,32,1269,649728,-3,2,7147008,494624,3.0451142631993697,0.7612785657998424,14.449375687390827,93.07928576545598,32.01547186414361,2.5074160807874017,0.0006287135402191135,199.31748020000032,-8782.0,5207.0,13989.0,583.0,-547.0177551221434,586.1458890702572,-519.0,394.6494383443121,-1.0213722991614649,18.39217768684154,1631710.2461115113,0.0
29,208,128,512,4,8,32,1269,649728,-3,3,7147008,558144,3.4361702127659575,0.8590425531914894,12.804953560371517,92.19052224371373,30.435951155253782,3.0074778831136326,0.0009044923217417646,200.69966449997537,-6812.0,10155.0,16967.0,670.0,-529.2880959416864,741.7104645003765,-526.0,481.59256084726775,0.6351926853514134,17.948759310252157,1523336.5934754447,0.0
30,209,128,512,4,8,32,1269,649728,-3,2,7147008,464320,2.8585500394011034,0.7146375098502759,15.392419021364576,93.5032953649975,32.80945404501225,2.2883755437937756,0.0005236662629433539,210.40745810001135,-3668.0,1690.0,5358.0,513.0,-527.2061416469661,419.8524408373545,-505.0,321.38627214749954,-0.3498466083010303,4.27826912655658,14372.13602758076,0.0
31,210,128,512,4,8,32,1269,649728,-2,1,7147008,421024,2.592001576044129,0.6480003940110323,16.97529832028578,94.10908732717243,32.90269847335264,2.2639408525187563,0.000512542818370353,201.73168129998976,-3386.0,6474.0,9860.0,410.0,-501.77223699763596,376.2753350447681,-496.0,266.3342426554904,0.8459385386803376,20.106079336321912,1999811.3357312041,0.0
32,212,128,512,4,8,32,1269,649728,-2,2,7147008,489184,3.0116233254531126,0.7529058313632782,14.610060836004449,93.15540153306111,31.695540764616183,2.601494797760557,0.0006767775182775225,202.98596609999368,-5673.0,3352.0,9025.0,587.0,-499.44909869976357,507.4915113251331,-482.0,375.9197660132558,-0.3778919693706632,6.947509190156632,109330.5303239371,0.0
33,213,128,512,4,8,32,1269,649728,-3,3,7147008,620960,3.8228920409771474,0.9557230102442869,11.509610925019325,91.31160899777922,28.993240895129965,3.550896020755302,0.0012608862550216367,202.04657909999696,-6057.0,3456.0,9513.0,1134.0,-706.9038120567376,877.5458727839398,-694.0,688.4115580748442,-0.07188709267823419,3.410944179750361,1282.8482433423098,2.710462471938623e-279
34,214,128,512,4,8,32,1269,649728,-3,2,7147008,488992,3.010441292356186,0.7526103230890465,14.615797395458413,93.15808797191777,33.86884312093746,2.0256193823686934,0.0004103133882227668,208.67485379997197,-2971.0,1983.0,4954.0,604.0,-515.6279058313633,482.0455876371974,-528.0,374.2641446205788,0.16776184870425773,3.6567444081518152,3681.0432504840783,0.0
35,215,128,512,4,8,32,1269,649728,-2,1,7147008,406464,2.5023640661938535,0.6255910165484634,17.583372697213036,94.31280894046851,31.954740887310972,2.525009146526796,0.0006375671190043906,202.21968160002143,-2342.0,1635.0,3977.0,411.0,-486.06589834515364,319.66003787554047,-475.0,250.00584924528724,-0.1355265311184224,3.624737470705415,3138.772821554074,0.0
36,217,128,512,4,8,32,1269,649728,-3,3,7147008,575392,3.5423561859732073,0.8855890464933018,12.421111172904732,91.94919048642453,30.981589774518067,2.824362985703642,0.000797702627501297,196.98815999999897,-8481.0,8490.0,16971.0,880.0,-528.4169868006304,751.451276213891,-492.0,556.2120525494774,-0.054577123409018206,9.70657727372893,304492.9519829523,0.0
37,219,128,512,4,8,32,1269,649728,-8,5,7147008,688064,4.236012608353034,1.0590031520882586,10.387126778904287,90.37269861737947,31.957469120852608,2.5242161669748833,0.0006371667257617287,193.25542080000832,-7913.0,5119.0,13032.0,1363.0,-1877.5379481875493,1170.7586725855622,-1865.0,882.8898660185115,0.036006969156596486,4.270562581961076,10960.879428514896,0.0
38,220,128,512,4,8,32,1269,649728,-7,2,7147008,493696,3.0394011032308903,0.7598502758077226,14.476536168006222,93.09227021992979,32.16192621295991,2.465492520446802,0.0006078653368379207,192.44068479998623,-5202.0,382.0,5584.0,672.0,-1729.5312746256895,502.9560711998851,-1719.0,399.53142472722743,-0.12005580317338867,3.212805521315645,696.6963864040458,5.179667852476554e-152
39,221,128,512,4,8,32,1269,649728,-3,1,7147008,442560,2.724586288416076,0.681146572104019,16.149240780911065,93.80775843541801,33.51771422196304,2.109183129373067,0.00044486534732320645,189.36378380000315,-2327.0,1720.0,4047.0,456.0,-524.7548020094563,355.3623853483309,-521.0,277.8912764100656,-0.0197533973662906,3.526837584000232,1889.0748658118112,0.0
40,222,128,512,4,8,32,1269,649728,-2,1,7147008,438176,2.697596532702916,0.674399133175729,16.310815745271306,93.86909878931155,33.98514076843415,1.998678595905789,0.00039947161297319676,198.25863379997827,-3967.0,1552.0,5519.0,453.0,-500.88716509062255,365.7353704178232,-478.0,281.33974004534326,-0.46708445577535485,4.803348491094814,27916.22228762358,0.0
41,223,128,512,4,8,32,1269,649728,-7,2,7147008,525792,3.236997635933806,0.8092494089834515,13.592842797151725,92.64318719105952,31.702012426405346,2.599557204183511,0.0006757697657822494,189.0332779999826,-7288.0,2353.0,9641.0,745.0,-1636.7468479117415,605.8017239159087,-1622.0,460.474449704651,-0.3585686331808089,5.851610453304411,58515.9116689989,0.0
42,228,128,512,4,8,32,1269,649728,-2,3,7147008,532288,3.27698975571316,0.81924743892829,13.426956835397378,92.55229600974282,32.56137104043467,2.354677576090765,0.0005544506487344766,192.73761300003025,-8464.0,5583.0,14047.0,514.0,-443.0918291962175,638.2301842982718,-432.0,386.35797303214946,-0.881184053806841,23.091242318675892,2752978.4762343676,0.0
43,230,128,512,4,8,32,1269,649728,-3,2,7147008,469440,2.8900709219858154,0.7225177304964538,15.224539877300613,93.43165699548678,32.73087203842238,2.309172612969811,0.0005332278156489938,191.2988905000093,-6111.0,3371.0,9482.0,507.0,-543.5614164696611,464.2686671087833,-537.0,333.41397096687933,-0.3311059287835472,10.022906949374761,336773.96474433155,0.0
44,231,128,512,4,8,32,1269,649728,-2,1,7147008,455136,2.8020094562647753,0.7005023640661938,15.703016241299304,93.63179669030733,33.588381047295265,2.092092813471714,0.0004376852340180061,195.42137020002338,-2638.0,1877.0,4515.0,477.0,-506.20412234042556,371.3369077925947,-499.0,290.27948421212284,-0.11120134496729625,3.5960189274159564,2739.0198760453227,0.0
45,232,128,512,4,8,32,1269,649728,-2,1,7147008,418176,2.574468085106383,0.6436170212765957,17.09090909090909,94.14893617021276,35.23811354429448,1.7301920923254024,0.00029935646763453355,193.87886120002622,-2507.0,1468.0,3975.0,435.0,-484.4506008668243,329.88257912103444,-487.0,260.621357156562,-0.004500619450500924,3.3513920358969043,836.2363829897716,2.591651792183934e-182
46,233,128,512,4,8,32,1269,649728,-2,3,7147008,567264,3.4923167848699763,0.8730791962174941,12.599086139786767,92.06291639802278,31.480204662595547,2.6667958269989307,0.0007111799982898995,194.77770800003054,-5763.0,5851.0,11614.0,804.0,-491.8844562647754,711.3257382341383,-481.0,522.0553031276293,0.04963977770817463,6.92702824384371,104439.76432261693,0.0
47,234,128,512,4,8,32,1269,649728,-3,2,7147008,494496,3.0443262411347516,0.7610815602836879,14.453115899825276,93.08107672469374,31.389540199946968,2.6947779805206515,0.0007261828364299007,196.05114760003198,-8754.0,6627.0,15381.0,555.0,-514.4602048857369,610.5023969761157,-506.0,391.3285384360152,-0.5473807512532566,19.884695023873533,1937620.390095321,0.0
